[Comments]
Sample name	20c94-34-45
Comment
User
Division
Company	ETH Zurich

[Detailed Information]
Creation date	21/12/2020 15:57

Data array type	Linear data array
Horizontal axis	Wavenumber [cm-1]
Vertical axis	%T
Start	599.753 cm-1
End	4500.08 cm-1
Data interval	0.482117 cm-1
Data points	8091    

[Measurement Information]
Model Name	FT/IR-4100typeA
Serial Number	B111161016

Accessory	ATR PRO ONE
Accessory S/N	B131461809

Measurement Date	21/12/2020 15:57

Light Source	Standard
Detector	TGS
Accumulation	32
Resolution	2 cm-1
Zero Filling	On
Apodization	Cosine
Gain	Auto (16)
Aperture	Auto (5 mm)
Scanning Speed	Auto (2 mm/sec)
Filter	Auto (30000 Hz)



TITLE	20c94-34-45
DATA TYPE	INFRARED SPECTRUM
ORIGIN	JASCO
OWNER	
DATE	20/12/21
TIME	15:57:27
SPECTROMETER/DATA SYSTEM	
LOCALE	8192
RESOLUTION	
DELTAX	0.482117
XUNITS	1/CM
YUNITS	TRANSMITTANCE
FIRSTX	  599.7532
LASTX	 4500.0776
NPOINTS	    8091
FIRSTY	    97.44372
MAXY	   103.79514
MINY	    82.26508
XYDATA
599.7532	97.4437
600.2354	97.7436
600.7175	97.9166
601.1996	97.9875
601.6817	98.0055
602.1638	97.996
602.6459	97.9432
603.1281	97.8153
603.6102	97.6079
604.0923	97.3693
604.5744	97.1794
605.0565	97.0941
605.5386	97.0998
606.0208	97.1161
606.5029	97.0481
606.9850	96.8517
607.4671	96.5667
607.9492	96.2948
608.4313	96.1386
608.9135	96.1443
609.3956	96.2849
609.8777	96.4862
610.3598	96.6729
610.8419	96.8036
611.3240	96.8792
611.8062	96.9325
612.2883	97.0084
612.7704	97.146
613.2525	97.3627
613.7346	97.6388
614.2167	97.9142
614.6989	98.1049
615.1810	98.1397
615.6631	97.9991
616.1452	97.7337
616.6273	97.4471
617.1094	97.2451
617.5916	97.1804
618.0737	97.2304
618.5558	97.3268
619.0379	97.4058
619.5200	97.4355
620.0021	97.4107
620.4843	97.3397
620.9664	97.2426
621.4485	97.1602
621.9306	97.1528
622.4127	97.2732
622.8948	97.5291
623.3770	97.8619
623.8591	98.166
624.3412	98.3406
624.8233	98.3464
625.3054	98.2229
625.7875	98.0521
626.2697	97.8994
626.7518	97.7818
627.2339	97.6875
627.7160	97.6181
628.1981	97.6095
628.6802	97.7086
629.1624	97.9247
629.6445	98.1975
630.1266	98.4145
630.6087	98.4714
631.0908	98.3348
631.5729	98.0628
632.0551	97.7701
632.5372	97.5644
633.0193	97.4968
633.5014	97.5515
633.9835	97.6697
634.4656	97.7869
634.9478	97.8619
635.4299	97.8856
635.9120	97.8733
636.3941	97.8504
636.8762	97.8401
637.3583	97.8576
637.8405	97.9066
638.3226	97.975
638.8047	98.0341
639.2868	98.0435
639.7689	97.9679
640.2510	97.7952
640.7332	97.5456
641.2153	97.2628
641.6974	96.993
642.1795	96.7645
642.6616	96.5829
643.1437	96.442
643.6259	96.3418
644.1080	96.2962
644.5901	96.3247
645.0722	96.4334
645.5543	96.6014
646.0364	96.7859
646.5186	96.9409
647.0007	97.0374
647.4828	97.0728
647.9649	97.0674
648.4470	97.0517
648.9291	97.0525
649.4113	97.0813
649.8934	97.1293
650.3755	97.1704
650.8576	97.1744
651.3397	97.1241
651.8218	97.0298
652.3040	96.9297
652.7861	96.8716
653.2682	96.8857
653.7503	96.9678
654.2324	97.086
654.7145	97.2056
655.1967	97.3144
655.6788	97.4282
656.1609	97.572
656.6430	97.7513
657.1251	97.9354
657.6072	98.0662
658.0894	98.0871
658.5715	97.9764
659.0536	97.7646
659.5357	97.5215
660.0178	97.3208
660.4999	97.2025
660.9821	97.1592
661.4642	97.1477
661.9463	97.1207
662.4284	97.0586
662.9105	96.9841
663.3926	96.9468
663.8748	96.9864
664.3569	97.0994
664.8390	97.2389
665.3211	97.346
665.8032	97.3823
666.2853	97.3398
666.7675	97.2412
667.2496	97.1575
667.7317	97.2556
668.2138	97.6991
668.6959	98.2139
669.1780	98.4384
669.6602	98.4342
670.1423	98.3308
670.6244	98.1803
671.1065	98.0014
671.5886	97.8197
672.0707	97.6814
672.5529	97.6372
673.0350	97.7052
673.5171	97.8463
673.9992	97.9763
674.4813	98.0154
674.9634	97.9405
675.4456	97.8046
675.9277	97.7027
676.4098	97.709
676.8919	97.8278
677.3740	97.992
677.8561	98.1089
678.3383	98.1209
678.8204	98.0403
679.3025	97.9354
679.7846	97.88
680.2667	97.9042
680.7488	97.9784
681.2310	98.0392
681.7131	98.0357
682.1952	97.9621
682.6773	97.8573
683.1594	97.7747
683.6415	97.7472
684.1237	97.7705
684.6058	97.8149
685.0879	97.8507
685.5700	97.868
686.0521	97.8756
686.5342	97.8838
687.0164	97.8895
687.4985	97.8784
687.9806	97.8424
688.4627	97.7953
688.9448	97.7702
689.4269	97.7943
689.9091	97.8609
690.3912	97.9242
690.8733	97.9241
691.3554	97.8253
691.8375	97.6428
692.3196	97.4373
692.8018	97.285
693.2839	97.2385
693.7660	97.3057
694.2481	97.4544
694.7302	97.6378
695.2123	97.8166
695.6945	97.9677
696.1766	98.077
696.6587	98.1316
697.1408	98.1205
697.6229	98.0444
698.1050	97.9237
698.5872	97.7939
699.0693	97.6922
699.5514	97.6416
700.0335	97.6469
700.5156	97.7004
700.9977	97.7931
701.4799	97.9194
701.9620	98.0728
702.4441	98.2369
702.9262	98.3812
703.4083	98.467
703.8904	98.4629
704.3726	98.3603
704.8547	98.1797
705.3368	97.965
705.8189	97.7682
706.3010	97.6326
706.7831	97.5798
707.2653	97.6035
707.7474	97.6718
708.2295	97.7357
708.7116	97.7468
709.1937	97.6769
709.6758	97.5322
710.1580	97.3536
710.6401	97.1988
711.1222	97.1141
711.6043	97.1092
712.0864	97.1484
712.5685	97.165
713.0507	97.0935
713.5328	96.9027
714.0149	96.6119
714.4970	96.2817
714.9791	95.9831
715.4612	95.7657
715.9434	95.6396
716.4255	95.5788
716.9076	95.5411
717.3897	95.4899
717.8718	95.4057
718.3539	95.2821
718.8361	95.1156
719.3182	94.9001
719.8003	94.6314
720.2824	94.3163
720.7645	93.9764
721.2466	93.6378
721.7288	93.3177
722.2109	93.0197
722.6930	92.7395
723.1751	92.4728
723.6572	92.2175
724.1393	91.9708
724.6215	91.725
725.1036	91.4703
725.5857	91.2037
726.0678	90.9374
726.5499	90.6973
727.0320	90.5088
727.5142	90.3774
727.9963	90.2791
728.4784	90.1691
728.9605	90.008
729.4426	89.787
729.9247	89.538
730.4069	89.3178
730.8890	89.1766
731.3711	89.1311
731.8532	89.1589
732.3353	89.2185
732.8174	89.2811
733.2996	89.3509
733.7817	89.4612
734.2638	89.6472
734.7459	89.9165
735.2280	90.2374
735.7101	90.5539
736.1923	90.8184
736.6744	91.0199
737.1565	91.1886
737.6386	91.3752
738.1207	91.62
738.6028	91.9306
739.0850	92.2807
739.5671	92.6258
740.0492	92.9253
740.5313	93.1586
741.0134	93.331
741.4955	93.468
741.9777	93.6041
742.4598	93.7684
742.9419	93.9738
743.4240	94.2122
743.9061	94.4603
744.3882	94.6917
744.8704	94.8903
745.3525	95.0563
745.8346	95.201
746.3167	95.3346
746.7988	95.4578
747.2809	95.5622
747.7631	95.6408
748.2452	95.6991
748.7273	95.7577
749.2094	95.8444
749.6915	95.9793
750.1736	96.1623
750.6558	96.3721
751.1379	96.5744
751.6200	96.7378
752.1021	96.8469
752.5842	96.9073
753.0663	96.9404
753.5485	96.9719
754.0306	97.0202
754.5127	97.0909
754.9948	97.1786
755.4769	97.2723
755.9590	97.3613
756.4412	97.4365
756.9233	97.4901
757.4054	97.5154
757.8875	97.5096
758.3696	97.476
758.8517	97.4242
759.3339	97.3658
759.8160	97.3086
760.2981	97.2571
760.7802	97.2187
761.2623	97.2121
761.7444	97.2661
762.2266	97.4058
762.7087	97.6295
763.1908	97.8943
763.6729	98.124
764.1550	98.2424
764.6371	98.2139
765.1193	98.0666
765.6014	97.8782
766.0835	97.7352
766.5656	97.6876
767.0477	97.7292
767.5298	97.8127
768.0120	97.8857
768.4941	97.9231
768.9762	97.9341
769.4583	97.9423
769.9404	97.9606
770.4225	97.9807
770.9047	97.9859
771.3868	97.9729
771.8689	97.9638
772.3510	97.9933
772.8331	98.0829
773.3152	98.2214
773.7974	98.3695
774.2795	98.4868
774.7616	98.5587
775.2437	98.6039
775.7258	98.6536
776.2079	98.7212
776.6901	98.7866
777.1722	98.8102
777.6543	98.7671
778.1364	98.6746
778.6185	98.5899
779.1006	98.5764
779.5828	98.6638
780.0649	98.8272
780.5470	99.0011
781.0291	99.1155
781.5112	99.1318
781.9933	99.0555
782.4755	98.9227
782.9576	98.7754
783.4397	98.6431
783.9218	98.54
784.4039	98.4707
784.8860	98.437
785.3682	98.4389
785.8503	98.4729
786.3324	98.5321
786.8145	98.6076
787.2966	98.6901
787.7787	98.7673
788.2609	98.8212
788.7430	98.8316
789.2251	98.7883
789.7072	98.7041
790.1893	98.6183
790.6714	98.5817
791.1536	98.6296
791.6357	98.7588
792.1178	98.9229
792.5999	99.0525
793.0820	99.0892
793.5641	99.0142
794.0463	98.8531
794.5284	98.6559
795.0105	98.4675
795.4926	98.3063
795.9747	98.1644
796.4568	98.0241
796.9390	97.8796
797.4211	97.7461
797.9032	97.6509
798.3853	97.6126
798.8674	97.6254
799.3495	97.6583
799.8317	97.6722
800.3138	97.6401
800.7959	97.5567
801.2780	97.4328
801.7601	97.2807
802.2422	97.1063
802.7244	96.9145
803.2065	96.7215
803.6886	96.56
804.1707	96.4685
804.6528	96.4702
805.1349	96.5572
805.6171	96.6946
806.0992	96.8412
806.5813	96.9734
807.0634	97.0934
807.5455	97.2182
808.0276	97.3593
808.5098	97.5096
808.9919	97.65
809.4740	97.7659
809.9561	97.8602
810.4382	97.9505
810.9203	98.0522
811.4025	98.1627
811.8846	98.2597
812.3667	98.3165
812.8488	98.3226
813.3309	98.2949
813.8130	98.2691
814.2952	98.2785
814.7773	98.3336
815.2594	98.4155
815.7415	98.4873
816.2236	98.5153
816.7057	98.4872
817.1879	98.4174
817.6700	98.3362
818.1521	98.2724
818.6342	98.2398
819.1163	98.2336
819.5984	98.2376
820.0806	98.2359
820.5627	98.2204
821.0448	98.191
821.5269	98.1502
822.0090	98.098
822.4911	98.0317
822.9733	97.95
823.4554	97.8566
823.9375	97.7591
824.4196	97.6638
824.9017	97.5714
825.3839	97.4785
825.8660	97.3836
826.3481	97.2925
826.8302	97.2162
827.3123	97.1628
827.7944	97.1276
828.2766	97.091
828.7587	97.0263
829.2408	96.9119
829.7229	96.7435
830.2050	96.5371
830.6871	96.3244
831.1693	96.1429
831.6514	96.0214
832.1335	95.9681
832.6156	95.9634
833.0977	95.9655
833.5798	95.9281
834.0620	95.8239
834.5441	95.6584
835.0262	95.4649
835.5083	95.2823
835.9904	95.1303
836.4725	95.0005
836.9547	94.8693
837.4368	94.7203
837.9189	94.5589
838.4010	94.4072
838.8831	94.2839
839.3652	94.1874
839.8474	94.0964
840.3295	93.9868
840.8116	93.8533
841.2937	93.7163
841.7758	93.6109
842.2579	93.5658
842.7401	93.5872
843.2222	93.6575
843.7043	93.7486
844.1864	93.8396
844.6685	93.9277
845.1506	94.0264
845.6328	94.1522
846.1149	94.3089
846.5970	94.4803
847.0791	94.6362
847.5612	94.7499
848.0433	94.8163
848.5255	94.8584
849.0076	94.9172
849.4897	95.0298
849.9718	95.2105
850.4539	95.4456
850.9360	95.7041
851.4182	95.9568
851.9003	96.189
852.3824	96.4026
852.8645	96.6082
853.3466	96.8143
853.8287	97.022
854.3109	97.2259
854.7930	97.4175
855.2751	97.5897
855.7572	97.7393
856.2393	97.8669
856.7214	97.9759
857.2036	98.0689
857.6857	98.1452
858.1678	98.2014
858.6499	98.2346
859.1320	98.2485
859.6141	98.2559
860.0963	98.2745
860.5784	98.3183
861.0605	98.389
861.5426	98.4749
862.0247	98.5584
862.5068	98.6264
862.9890	98.6768
863.4711	98.718
863.9532	98.7615
864.4353	98.8143
864.9174	98.8761
865.3995	98.9418
865.8817	99.0064
866.3638	99.0688
866.8459	99.1315
867.3280	99.1968
867.8101	99.262
868.2922	99.3155
868.7744	99.3385
869.2565	99.3133
869.7386	99.2342
870.2207	99.1172
870.7028	98.9989
871.1849	98.9238
871.6671	98.9223
872.1492	98.9944
872.6313	99.1053
873.1134	99.2
873.5955	99.2286
874.0776	99.1698
874.5598	99.0391
875.0419	98.8778
875.5240	98.731
876.0061	98.6268
876.4882	98.5679
876.9703	98.5378
877.4525	98.515
877.9346	98.4872
878.4167	98.4566
878.8988	98.4367
879.3809	98.4415
879.8630	98.4757
880.3452	98.5294
880.8273	98.5809
881.3094	98.6048
881.7915	98.5826
882.2736	98.5104
882.7557	98.3998
883.2379	98.2732
883.7200	98.1549
884.2021	98.0623
884.6842	98.0018
885.1663	97.9697
885.6484	97.9566
886.1306	97.9514
886.6127	97.9443
887.0948	97.9271
887.5769	97.8926
888.0590	97.8366
888.5411	97.7599
889.0233	97.6693
889.5054	97.5762
889.9875	97.4917
890.4696	97.4213
890.9517	97.3619
891.4338	97.304
891.9160	97.2367
892.3981	97.1549
892.8802	97.064
893.3623	96.9794
893.8444	96.9212
894.3265	96.9053
894.8087	96.9339
895.2908	96.9919
895.7729	97.0511
896.2550	97.0827
896.7371	97.0721
897.2192	97.0277
897.7014	96.9776
898.1835	96.9545
898.6656	96.9783
899.1477	97.0441
899.6298	97.1251
900.1119	97.1871
900.5941	97.2065
901.0762	97.1802
901.5583	97.1228
902.0404	97.0539
902.5225	96.9857
903.0046	96.9176
903.4868	96.8411
903.9689	96.7509
904.4510	96.6524
904.9331	96.562
905.4152	96.4975
905.8973	96.4658
906.3795	96.4566
906.8616	96.4455
907.3437	96.4077
907.8258	96.3322
908.3079	96.2299
908.7900	96.1281
909.2722	96.0552
909.7543	96.0248
910.2364	96.0292
910.7185	96.0443
911.2006	96.0445
911.6827	96.0146
912.1649	95.9557
912.6470	95.8801
913.1291	95.8041
913.6112	95.7412
914.0933	95.7007
914.5754	95.6882
915.0576	95.7054
915.5397	95.7489
916.0218	95.8098
916.5039	95.8762
916.9860	95.9383
917.4681	95.993
917.9503	96.0427
918.4324	96.0917
918.9145	96.1406
919.3966	96.1858
919.8787	96.2233
920.3608	96.2531
920.8430	96.2805
921.3251	96.313
921.8072	96.3545
922.2893	96.4033
922.7714	96.4533
923.2535	96.4977
923.7357	96.532
924.2178	96.5546
924.6999	96.5666
925.1820	96.5735
925.6641	96.5874
926.1462	96.6263
926.6284	96.7066
927.1105	96.8337
927.5926	96.9939
928.0747	97.1576
928.5568	97.2929
929.0389	97.3828
929.5211	97.4346
930.0032	97.4749
930.4853	97.5325
930.9674	97.6223
931.4495	97.7381
931.9316	97.8601
932.4138	97.9685
932.8959	98.055
933.3780	98.1225
933.8601	98.1782
934.3422	98.2241
934.8243	98.2546
935.3065	98.2622
935.7886	98.2469
936.2707	98.2204
936.7528	98.2028
937.2349	98.2117
937.7170	98.2519
938.1992	98.3118
938.6813	98.3694
939.1634	98.4042
939.6455	98.4074
940.1276	98.3849
940.6097	98.352
941.0919	98.3237
941.5740	98.3068
942.0561	98.299
942.5382	98.2918
943.0203	98.2771
943.5024	98.2513
943.9846	98.2167
944.4667	98.1796
944.9488	98.148
945.4309	98.1277
945.9130	98.1191
946.3951	98.1154
946.8773	98.1038
947.3594	98.0705
947.8415	98.008
948.3236	97.92
948.8057	97.8224
949.2878	97.7365
949.7700	97.6801
950.2521	97.6608
950.7342	97.6738
951.2163	97.7056
951.6984	97.74
952.1805	97.7638
952.6627	97.7693
953.1448	97.7561
953.6269	97.7302
954.1090	97.7026
954.5911	97.6861
955.0732	97.6898
955.5554	97.7137
956.0375	97.746
956.5196	97.7656
957.0017	97.7492
957.4838	97.6822
957.9659	97.5655
958.4481	97.4171
958.9302	97.2655
959.4123	97.1383
959.8944	97.0515
960.3765	97.0048
960.8586	96.9845
961.3408	96.9728
961.8229	96.9574
962.3050	96.9364
962.7871	96.9156
963.2692	96.9028
963.7513	96.9014
964.2335	96.9087
964.7156	96.9188
965.1977	96.9273
965.6798	96.9347
966.1619	96.9464
966.6440	96.969
967.1262	97.0063
967.6083	97.0555
968.0904	97.1078
968.5725	97.1522
969.0546	97.181
969.5367	97.1947
970.0189	97.2021
970.5010	97.2153
970.9831	97.2431
971.4652	97.2852
971.9473	97.334
972.4294	97.3808
972.9116	97.4227
973.3937	97.4647
973.8758	97.5142
974.3579	97.5733
974.8400	97.633
975.3221	97.6757
975.8043	97.6838
976.2864	97.6505
976.7685	97.5839
977.2506	97.5044
977.7327	97.4359
978.2148	97.3963
978.6970	97.3931
979.1791	97.4225
979.6612	97.4741
980.1433	97.5341
980.6254	97.5889
981.1075	97.6261
981.5897	97.6357
982.0718	97.6129
982.5539	97.5609
983.0360	97.4933
983.5181	97.4312
984.0002	97.3967
984.4824	97.4028
984.9645	97.4468
985.4466	97.5111
985.9287	97.5715
986.4108	97.6096
986.8929	97.6214
987.3751	97.6178
987.8572	97.6171
988.3393	97.6349
988.8214	97.6768
989.3035	97.738
989.7856	97.8076
990.2678	97.8746
990.7499	97.9321
991.2320	97.9776
991.7141	98.0123
992.1962	98.0389
992.6783	98.0596
993.1605	98.0753
993.6426	98.0854
994.1247	98.089
994.6068	98.0866
995.0889	98.0816
995.5710	98.0796
996.0532	98.0856
996.5353	98.0996
997.0174	98.1155
997.4995	98.1235
997.9816	98.1158
998.4637	98.092
998.9459	98.0601
999.4280	98.0319
999.9101	98.0161
1000.3922	98.013
1000.8743	98.0146
1001.3564	98.01
1001.8386	97.9923
1002.3207	97.9621
1002.8028	97.9263
1003.2849	97.8938
1003.7670	97.8712
1004.2491	97.8603
1004.7313	97.8591
1005.2134	97.8622
1005.6955	97.8617
1006.1776	97.8475
1006.6597	97.8095
1007.1418	97.741
1007.6240	97.6403
1008.1061	97.5093
1008.5882	97.3482
1009.0703	97.1503
1009.5524	96.9031
1010.0345	96.5965
1010.5167	96.2338
1010.9988	95.838
1011.4809	95.4474
1011.9630	95.1021
1012.4451	94.8301
1012.9272	94.642
1013.4094	94.5353
1013.8915	94.5069
1014.3736	94.5614
1014.8557	94.711
1015.3378	94.9659
1015.8199	95.3222
1016.3021	95.7548
1016.7842	96.2203
1017.2663	96.6676
1017.7484	97.0526
1018.2305	97.3487
1018.7126	97.5507
1019.1948	97.6711
1019.6769	97.7325
1020.1590	97.7591
1020.6411	97.7705
1021.1232	97.7787
1021.6053	97.7882
1022.0875	97.7982
1022.5696	97.8067
1023.0517	97.813
1023.5338	97.8183
1024.0160	97.8239
1024.4980	97.8291
1024.9802	97.8294
1025.4623	97.8187
1025.9445	97.7927
1026.4265	97.7529
1026.9087	97.7075
1027.3907	97.668
1027.8729	97.6435
1028.3550	97.6361
1028.8372	97.6393
1029.3192	97.6408
1029.8014	97.628
1030.2834	97.5931
1030.7656	97.536
1031.2477	97.4639
1031.7299	97.3885
1032.2119	97.3208
1032.6941	97.2671
1033.1761	97.2273
1033.6583	97.1964
1034.1404	97.1691
1034.6226	97.1436
1035.1046	97.1232
1035.5868	97.1124
1036.0688	97.1129
1036.5510	97.1207
1037.0331	97.1286
1037.5153	97.1305
1037.9973	97.1248
1038.4795	97.1136
1038.9615	97.0991
1039.4437	97.0811
1039.9258	97.0575
1040.4080	97.0279
1040.8900	96.9967
1041.3722	96.9714
1041.8542	96.9586
1042.3364	96.96
1042.8185	96.973
1043.3007	96.9937
1043.7827	97.0199
1044.2649	97.0504
1044.7469	97.0826
1045.2291	97.1102
1045.7112	97.1265
1046.1934	97.1306
1046.6754	97.1313
1047.1576	97.1448
1047.6396	97.1859
1048.1218	97.2582
1048.6039	97.35
1049.0861	97.4392
1049.5681	97.5033
1050.0503	97.5289
1050.5323	97.5162
1051.0145	97.4763
1051.4966	97.4251
1051.9788	97.3765
1052.4608	97.3389
1052.9430	97.3134
1053.4250	97.2963
1053.9072	97.2821
1054.3893	97.2671
1054.8715	97.2516
1055.3535	97.2385
1055.8357	97.2305
1056.3177	97.2272
1056.7999	97.225
1057.2820	97.2191
1057.7642	97.2071
1058.2462	97.1892
1058.7284	97.1679
1059.2104	97.145
1059.6926	97.1221
1060.1747	97.1015
1060.6569	97.0868
1061.1389	97.0829
1061.6211	97.0927
1062.1031	97.1141
1062.5853	97.1405
1063.0674	97.1637
1063.5496	97.1784
1064.0316	97.1852
1064.5138	97.1902
1064.9958	97.2017
1065.4780	97.2264
1065.9601	97.2658
1066.4423	97.3146
1066.9243	97.3618
1067.4065	97.3951
1067.8885	97.406
1068.3707	97.3959
1068.8528	97.3759
1069.3350	97.3625
1069.8170	97.3685
1070.2992	97.397
1070.7813	97.4414
1071.2634	97.4904
1071.7455	97.536
1072.2277	97.5761
1072.7097	97.6119
1073.1919	97.6432
1073.6740	97.6663
1074.1561	97.6768
1074.6382	97.6748
1075.1204	97.666
1075.6024	97.658
1076.0846	97.6532
1076.5667	97.6453
1077.0488	97.6217
1077.5309	97.5717
1078.0131	97.4931
1078.4951	97.394
1078.9773	97.2885
1079.4594	97.1888
1079.9415	97.0998
1080.4236	97.0171
1080.9058	96.928
1081.3878	96.8154
1081.8700	96.6633
1082.3521	96.4619
1082.8342	96.2127
1083.3163	95.9278
1083.7985	95.6239
1084.2805	95.3131
1084.7627	94.9958
1085.2448	94.6622
1085.7269	94.3022
1086.2090	93.9181
1086.6912	93.5303
1087.1732	93.1728
1087.6554	92.8799
1088.1375	92.6729
1088.6196	92.554
1089.1017	92.5104
1089.5839	92.5237
1090.0659	92.5784
1090.5481	92.6651
1091.0302	92.7779
1091.5123	92.9122
1091.9944	93.0629
1092.4766	93.2265
1092.9586	93.4036
1093.4408	93.5994
1093.9229	93.8207
1094.4050	94.0717
1094.8871	94.3488
1095.3693	94.6395
1095.8513	94.9247
1096.3335	95.186
1096.8156	95.4117
1097.2977	95.6003
1097.7798	95.7579
1098.2620	95.891
1098.7440	96.0002
1099.2262	96.0802
1099.7083	96.1245
1100.1904	96.1331
1100.6725	96.1159
1101.1547	96.0879
1101.6367	96.0613
1102.1189	96.0387
1102.6010	96.0135
1103.0831	95.9773
1103.5652	95.9267
1104.0474	95.8653
1104.5294	95.7999
1105.0116	95.7344
1105.4937	95.6683
1105.9758	95.6006
1106.4579	95.5351
1106.9401	95.4811
1107.4221	95.4484
1107.9043	95.4389
1108.3864	95.4439
1108.8685	95.4486
1109.3506	95.4426
1109.8328	95.4276
1110.3148	95.4169
1110.7970	95.4262
1111.2791	95.4624
1111.7612	95.5177
1112.2433	95.5744
1112.7255	95.6154
1113.2075	95.6331
1113.6897	95.6316
1114.1718	95.6209
1114.6539	95.6091
1115.1360	95.5979
1115.6182	95.5836
1116.1002	95.5627
1116.5824	95.5346
1117.0645	95.5015
1117.5466	95.4654
1118.0287	95.4246
1118.5109	95.3747
1118.9929	95.3108
1119.4751	95.2302
1119.9572	95.1331
1120.4393	95.0206
1120.9214	94.8939
1121.4036	94.7537
1121.8856	94.6016
1122.3678	94.4404
1122.8499	94.2736
1123.3320	94.1027
1123.8141	93.9264
1124.2963	93.74
1124.7783	93.5371
1125.2605	93.3123
1125.7426	93.062
1126.2247	92.7864
1126.7068	92.4891
1127.1890	92.1774
1127.6710	91.8599
1128.1532	91.5434
1128.6353	91.2296
1129.1174	90.9132
1129.5995	90.5845
1130.0817	90.2325
1130.5637	89.8491
1131.0459	89.4308
1131.5280	88.9793
1132.0101	88.5008
1132.4922	88.0054
1132.9744	87.5066
1133.4564	87.0186
1133.9386	86.5517
1134.4207	86.108
1134.9028	85.6811
1135.3849	85.2599
1135.8671	84.8365
1136.3491	84.4122
1136.8313	83.9992
1137.3134	83.616
1137.7955	83.2796
1138.2776	82.9987
1138.7598	82.7721
1139.2418	82.5922
1139.7240	82.4512
1140.2061	82.3464
1140.6882	82.2818
1141.1703	82.2651
1141.6525	82.3032
1142.1345	82.3976
1142.6167	82.5435
1143.0988	82.7318
1143.5809	82.9533
1144.0630	83.2015
1144.5452	83.4742
1145.0272	83.7716
1145.5094	84.0947
1145.9915	84.4439
1146.4736	84.8186
1146.9557	85.2167
1147.4379	85.6336
1147.9199	86.0621
1148.4021	86.4936
1148.8842	86.9202
1149.3663	87.3382
1149.8484	87.7483
1150.3306	88.153
1150.8126	88.5528
1151.2948	88.9428
1151.7769	89.3143
1152.2590	89.659
1152.7411	89.9734
1153.2233	90.2593
1153.7053	90.5211
1154.1875	90.7621
1154.6696	90.9828
1155.1517	91.1823
1155.6338	91.3617
1156.1160	91.5252
1156.5980	91.6781
1157.0802	91.824
1157.5623	91.9626
1158.0444	92.0899
1158.5265	92.201
1159.0087	92.2925
1159.4907	92.3632
1159.9729	92.4148
1160.4550	92.451
1160.9371	92.4783
1161.4192	92.5042
1161.9014	92.5363
1162.3834	92.5783
1162.8656	92.6282
1163.3477	92.6787
1163.8298	92.7207
1164.3119	92.748
1164.7941	92.7605
1165.2761	92.7642
1165.7583	92.7687
1166.2404	92.7825
1166.7225	92.8097
1167.2046	92.849
1167.6868	92.8946
1168.1688	92.9381
1168.6510	92.9716
1169.1331	92.9896
1169.6152	92.991
1170.0973	92.9786
1170.5795	92.9593
1171.0615	92.9418
1171.5437	92.9347
1172.0258	92.944
1172.5079	92.9714
1172.9900	93.0147
1173.4722	93.0696
1173.9542	93.1325
1174.4364	93.2037
1174.9185	93.2871
1175.4006	93.3875
1175.8827	93.5063
1176.3649	93.6392
1176.8469	93.7774
1177.3291	93.9116
1177.8112	94.0369
1178.2933	94.1542
1178.7754	94.2685
1179.2576	94.3854
1179.7396	94.5073
1180.2218	94.6336
1180.7039	94.7614
1181.1860	94.8881
1181.6681	95.0118
1182.1503	95.131
1182.6323	95.2443
1183.1145	95.3501
1183.5966	95.4478
1184.0787	95.5378
1184.5608	95.6218
1185.0430	95.7024
1185.5250	95.7826
1186.0072	95.8657
1186.4893	95.9539
1186.9714	96.0478
1187.4535	96.1447
1187.9357	96.2402
1188.4177	96.3298
1188.8999	96.4114
1189.3820	96.4855
1189.8641	96.5533
1190.3462	96.6142
1190.8284	96.666
1191.3104	96.7069
1191.7926	96.7388
1192.2747	96.7689
1192.7568	96.8061
1193.2389	96.8561
1193.7211	96.9169
1194.2031	96.9799
1194.6853	97.035
1195.1674	97.0769
1195.6495	97.1082
1196.1316	97.1374
1196.6138	97.1731
1197.0958	97.2194
1197.5780	97.2746
1198.0601	97.334
1198.5422	97.3936
1199.0243	97.4516
1199.5065	97.507
1199.9885	97.5573
1200.4707	97.5979
1200.9528	97.6245
1201.4349	97.6372
1201.9170	97.642
1202.3992	97.6485
1202.8812	97.6647
1203.3634	97.6921
1203.8455	97.7244
1204.3276	97.7519
1204.8097	97.7681
1205.2919	97.7732
1205.7739	97.7732
1206.2561	97.775
1206.7382	97.7805
1207.2203	97.785
1207.7024	97.7807
1208.1846	97.7616
1208.6666	97.7278
1209.1488	97.6859
1209.6309	97.6449
1210.1130	97.6118
1210.5951	97.5876
1211.0773	97.5675
1211.5593	97.544
1212.0415	97.5108
1212.5236	97.467
1213.0057	97.4185
1213.4878	97.375
1213.9700	97.3464
1214.4520	97.337
1214.9342	97.3444
1215.4163	97.3606
1215.8984	97.3766
1216.3805	97.3874
1216.8627	97.3938
1217.3447	97.3998
1217.8269	97.4094
1218.3090	97.4229
1218.7911	97.4369
1219.2732	97.447
1219.7554	97.4507
1220.2374	97.4488
1220.7196	97.4442
1221.2017	97.4407
1221.6838	97.4406
1222.1659	97.4453
1222.6481	97.4556
1223.1301	97.4719
1223.6123	97.4936
1224.0944	97.519
1224.5765	97.5453
1225.0586	97.5696
1225.5408	97.5902
1226.0228	97.6068
1226.5050	97.6197
1226.9871	97.6288
1227.4692	97.6328
1227.9513	97.63
1228.4335	97.6195
1228.9155	97.6026
1229.3977	97.583
1229.8798	97.5662
1230.3619	97.5565
1230.8440	97.5555
1231.3262	97.5611
1231.8082	97.5675
1232.2904	97.5678
1232.7725	97.5569
1233.2546	97.5338
1233.7367	97.5026
1234.2189	97.4711
1234.7009	97.4479
1235.1831	97.4388
1235.6652	97.4447
1236.1473	97.4609
1236.6294	97.4787
1237.1116	97.4889
1237.5936	97.4851
1238.0758	97.4654
1238.5579	97.4338
1239.0400	97.3975
1239.5221	97.364
1240.0043	97.3379
1240.4863	97.3191
1240.9685	97.3033
1241.4506	97.2837
1241.9327	97.2532
1242.4148	97.2069
1242.8970	97.1427
1243.3790	97.0624
1243.8612	96.9712
1244.3433	96.8773
1244.8254	96.7889
1245.3075	96.7117
1245.7897	96.6464
1246.2717	96.5892
1246.7539	96.5336
1247.2360	96.474
1247.7181	96.4071
1248.2002	96.3328
1248.6824	96.2521
1249.1644	96.1665
1249.6466	96.0779
1250.1287	95.9905
1250.6108	95.91
1251.0929	95.8424
1251.5751	95.7908
1252.0571	95.7532
1252.5393	95.7237
1253.0214	95.6959
1253.5035	95.6665
1253.9856	95.6364
1254.4678	95.6087
1254.9498	95.5851
1255.4320	95.5631
1255.9141	95.5373
1256.3962	95.5033
1256.8783	95.4615
1257.3605	95.4192
1257.8425	95.3875
1258.3247	95.3766
1258.8068	95.3907
1259.2889	95.4266
1259.7710	95.4755
1260.2532	95.5275
1260.7352	95.5767
1261.2174	95.6226
1261.6995	95.6691
1262.1816	95.7211
1262.6637	95.7816
1263.1459	95.852
1263.6279	95.932
1264.1101	96.0209
1264.5922	96.1163
1265.0743	96.2128
1265.5564	96.303
1266.0386	96.3791
1266.5206	96.4374
1267.0028	96.4806
1267.4849	96.5166
1267.9670	96.555
1268.4491	96.6022
1268.9313	96.6587
1269.4133	96.72
1269.8955	96.7792
1270.3776	96.829
1270.8597	96.8644
1271.3418	96.8828
1271.8240	96.8845
1272.3060	96.8723
1272.7882	96.8508
1273.2703	96.8243
1273.7524	96.795
1274.2345	96.762
1274.7167	96.7225
1275.1987	96.6733
1275.6809	96.6138
1276.1630	96.546
1276.6451	96.4743
1277.1272	96.4033
1277.6094	96.3358
1278.0914	96.2719
1278.5736	96.21
1279.0557	96.1481
1279.5378	96.0852
1280.0199	96.0225
1280.5021	95.9619
1280.9841	95.9054
1281.4663	95.8529
1281.9484	95.8023
1282.4305	95.7507
1282.9126	95.6961
1283.3948	95.6391
1283.8768	95.5824
1284.3590	95.5292
1284.8411	95.4796
1285.3232	95.4299
1285.8053	95.3727
1286.2875	95.3015
1286.7695	95.2139
1287.2517	95.114
1287.7338	95.0107
1288.2159	94.9124
1288.6980	94.8224
1289.1802	94.7377
1289.6622	94.6527
1290.1444	94.5638
1290.6265	94.4719
1291.1086	94.3811
1291.5907	94.2954
1292.0729	94.2157
1292.5549	94.1402
1293.0371	94.0672
1293.5192	93.9968
1294.0013	93.9314
1294.4834	93.8727
1294.9656	93.8195
1295.4476	93.768
1295.9298	93.7143
1296.4119	93.6584
1296.8940	93.6044
1297.3761	93.5596
1297.8583	93.5308
1298.3403	93.5211
1298.8225	93.5296
1299.3046	93.5523
1299.7867	93.5835
1300.2688	93.6174
1300.7510	93.6496
1301.2330	93.6778
1301.7152	93.7028
1302.1973	93.7276
1302.6794	93.7562
1303.1615	93.7923
1303.6437	93.8382
1304.1257	93.8953
1304.6079	93.9637
1305.0900	94.0428
1305.5721	94.1299
1306.0542	94.2202
1306.5364	94.307
1307.0184	94.3841
1307.5006	94.4477
1307.9827	94.4983
1308.4648	94.5403
1308.9469	94.5798
1309.4291	94.6215
1309.9111	94.6679
1310.3933	94.7188
1310.8754	94.7739
1311.3575	94.8334
1311.8396	94.8988
1312.3218	94.9712
1312.8038	95.05
1313.2860	95.1324
1313.7681	95.2149
1314.2502	95.2966
1314.7323	95.3805
1315.2145	95.4733
1315.6965	95.582
1316.1787	95.7103
1316.6608	95.8566
1317.1429	96.0135
1317.6250	96.1707
1318.1072	96.3184
1318.5892	96.4502
1319.0714	96.5642
1319.5535	96.6632
1320.0356	96.7523
1320.5177	96.8369
1320.9999	96.9194
1321.4819	96.999
1321.9641	97.072
1322.4462	97.1346
1322.9283	97.1853
1323.4104	97.2266
1323.8926	97.2638
1324.3746	97.3015
1324.8568	97.3404
1325.3389	97.3773
1325.8210	97.4073
1326.3031	97.4278
1326.7853	97.4404
1327.2673	97.4506
1327.7495	97.464
1328.2316	97.4827
1328.7137	97.505
1329.1958	97.5261
1329.6780	97.5412
1330.1600	97.5479
1330.6422	97.5456
1331.1243	97.535
1331.6064	97.517
1332.0885	97.4928
1332.5707	97.4654
1333.0527	97.4396
1333.5349	97.4212
1334.0170	97.4139
1334.4991	97.4181
1334.9812	97.4307
1335.4634	97.4471
1335.9454	97.4635
1336.4276	97.4788
1336.9097	97.494
1337.3918	97.5115
1337.8739	97.5326
1338.3561	97.5575
1338.8381	97.5835
1339.3203	97.6058
1339.8024	97.6178
1340.2845	97.6145
1340.7666	97.5955
1341.2488	97.5647
1341.7308	97.5283
1342.2130	97.4931
1342.6951	97.4644
1343.1772	97.4452
1343.6593	97.4352
1344.1415	97.4311
1344.6235	97.4284
1345.1057	97.4233
1345.5878	97.4148
1346.0699	97.4041
1346.5520	97.3934
1347.0342	97.3837
1347.5162	97.3741
1347.9984	97.3624
1348.4805	97.3462
1348.9626	97.324
1349.4447	97.2953
1349.9269	97.2599
1350.4089	97.217
1350.8911	97.1661
1351.3732	97.1079
1351.8553	97.0453
1352.3374	96.9822
1352.8196	96.9212
1353.3016	96.8625
1353.7838	96.8036
1354.2659	96.7419
1354.7480	96.6754
1355.2301	96.6022
1355.7123	96.5181
1356.1943	96.4166
1356.6765	96.2917
1357.1586	96.1428
1357.6407	95.9766
1358.1228	95.8033
1358.6050	95.6293
1359.0870	95.4534
1359.5692	95.2684
1360.0513	95.0677
1360.5334	94.8485
1361.0155	94.6092
1361.4977	94.3433
1361.9797	94.0372
1362.4619	93.6808
1362.9440	93.2855
1363.4261	92.8866
1363.9082	92.5208
1364.3904	92.2021
1364.8724	91.9225
1365.3546	91.6683
1365.8367	91.4347
1366.3188	91.2314
1366.8009	91.0789
1367.2831	90.9979
1367.7651	90.9979
1368.2473	91.073
1368.7294	91.2057
1369.2115	91.378
1369.6936	91.5794
1370.1758	91.8085
1370.6578	92.0675
1371.1400	92.3564
1371.6221	92.6702
1372.1042	93
1372.5863	93.3337
1373.0685	93.6548
1373.5505	93.9385
1374.0327	94.1544
1374.5148	94.2809
1374.9969	94.3206
1375.4790	94.2966
1375.9612	94.2338
1376.4432	94.147
1376.9254	94.0408
1377.4075	93.9158
1377.8896	93.7751
1378.3717	93.6286
1378.8539	93.4907
1379.3359	93.3764
1379.8181	93.2958
1380.3002	93.2533
1380.7823	93.248
1381.2644	93.2752
1381.7466	93.329
1382.2286	93.4048
1382.7108	93.5013
1383.1929	93.6199
1383.6750	93.7615
1384.1571	93.9226
1384.6393	94.0959
1385.1213	94.2736
1385.6035	94.4504
1386.0856	94.6244
1386.5677	94.7924
1387.0498	94.9455
1387.5320	95.0696
1388.0140	95.156
1388.4962	95.2077
1388.9783	95.2338
1389.4604	95.2411
1389.9425	95.2325
1390.4247	95.2091
1390.9067	95.1743
1391.3889	95.1352
1391.8710	95.1006
1392.3531	95.0772
1392.8352	95.0668
1393.3174	95.0659
1393.7994	95.0651
1394.2816	95.0511
1394.7637	95.0156
1395.2458	94.964
1395.7279	94.9119
1396.2101	94.8699
1396.6921	94.8392
1397.1743	94.8148
1397.6564	94.7922
1398.1385	94.7711
1398.6206	94.7592
1399.1028	94.768
1399.5848	94.8042
1400.0670	94.865
1400.5491	94.9428
1401.0313	95.0317
1401.5133	95.1275
1401.9955	95.2263
1402.4775	95.3237
1402.9597	95.4143
1403.4418	95.4917
1403.9240	95.5475
1404.4060	95.5709
1404.8882	95.5544
1405.3702	95.5002
1405.8524	95.4215
1406.3345	95.3332
1406.8167	95.2443
1407.2987	95.1572
1407.7809	95.0713
1408.2629	94.9843
1408.7451	94.8931
1409.2272	94.793
1409.7094	94.6781
1410.1914	94.5442
1410.6736	94.3905
1411.1556	94.2202
1411.6378	94.0392
1412.1199	93.8531
1412.6021	93.6664
1413.0841	93.4821
1413.5663	93.3027
1414.0483	93.129
1414.5305	92.9595
1415.0126	92.7914
1415.4948	92.6242
1415.9768	92.4633
1416.4590	92.3192
1416.9410	92.203
1417.4232	92.1196
1417.9053	92.0657
1418.3875	92.0308
1418.8695	92.0044
1419.3517	91.9864
1419.8337	91.9887
1420.3159	92.0196
1420.7980	92.0774
1421.2802	92.1566
1421.7622	92.2542
1422.2444	92.3712
1422.7264	92.512
1423.2086	92.6804
1423.6907	92.8723
1424.1729	93.0724
1424.6549	93.2631
1425.1371	93.4351
1425.6191	93.5888
1426.1013	93.7284
1426.5834	93.8582
1427.0656	93.9802
1427.5476	94.0946
1428.0298	94.2008
1428.5118	94.2976
1428.9940	94.3832
1429.4761	94.4554
1429.9583	94.5134
1430.4403	94.5596
1430.9225	94.5982
1431.4045	94.6312
1431.8867	94.6561
1432.3688	94.6681
1432.8510	94.6644
1433.3330	94.6497
1433.8152	94.636
1434.2972	94.6366
1434.7794	94.6601
1435.2615	94.7067
1435.7437	94.7628
1436.2257	94.7933
1436.7079	94.7596
1437.1899	94.6702
1437.6721	94.5725
1438.1542	94.496
1438.6364	94.4435
1439.1184	94.4085
1439.6006	94.3846
1440.0826	94.3673
1440.5648	94.3526
1441.0469	94.3367
1441.5291	94.3158
1442.0111	94.2875
1442.4933	94.2508
1442.9753	94.2061
1443.4575	94.1549
1443.9396	94.1002
1444.4218	94.0469
1444.9038	94.0012
1445.3860	93.9685
1445.8680	93.9506
1446.3502	93.9444
1446.8323	93.9413
1447.3145	93.9293
1447.7965	93.8995
1448.2787	93.854
1448.7607	93.8048
1449.2429	93.7631
1449.7250	93.7323
1450.2072	93.7113
1450.6892	93.6981
1451.1714	93.6924
1451.6534	93.6957
1452.1356	93.7096
1452.6177	93.7343
1453.0999	93.7677
1453.5819	93.8079
1454.0641	93.8535
1454.5461	93.9049
1455.0283	93.9632
1455.5104	94.0293
1455.9926	94.1006
1456.4746	94.1668
1456.9568	94.21
1457.4388	94.2203
1457.9210	94.2075
1458.4031	94.1879
1458.8853	94.1713
1459.3673	94.1616
1459.8495	94.1608
1460.3315	94.1715
1460.8137	94.1954
1461.2958	94.2327
1461.7780	94.2806
1462.2600	94.3343
1462.7422	94.3887
1463.2242	94.44
1463.7064	94.4861
1464.1885	94.5253
1464.6707	94.5558
1465.1527	94.577
1465.6349	94.5911
1466.1169	94.6024
1466.5991	94.6152
1467.0812	94.6337
1467.5634	94.6624
1468.0454	94.7048
1468.5276	94.7613
1469.0096	94.8279
1469.4918	94.8987
1469.9739	94.9704
1470.4561	95.0438
1470.9381	95.1231
1471.4203	95.2101
1471.9023	95.292
1472.3845	95.3356
1472.8666	95.3188
1473.3488	95.2642
1473.8308	95.2104
1474.3130	95.1749
1474.7950	95.1551
1475.2772	95.1357
1475.7593	95.0956
1476.2415	95.0194
1476.7235	94.9129
1477.2057	94.8005
1477.6877	94.7043
1478.1699	94.6317
1478.6520	94.5789
1479.1342	94.5361
1479.6162	94.4899
1480.0984	94.4255
1480.5804	94.3319
1481.0626	94.2084
1481.5447	94.0643
1482.0269	93.9113
1482.5089	93.754
1482.9911	93.5901
1483.4731	93.4167
1483.9553	93.2372
1484.4374	93.0603
1484.9196	92.8938
1485.4016	92.7389
1485.8838	92.5903
1486.3658	92.4451
1486.8480	92.3153
1487.3301	92.2289
1487.8123	92.2164
1488.2943	92.2978
1488.7765	92.4868
1489.2585	92.7921
1489.7407	93.194
1490.2228	93.6153
1490.7050	93.9628
1491.1870	94.2131
1491.6692	94.4085
1492.1512	94.5946
1492.6334	94.7898
1493.1155	94.989
1493.5977	95.1779
1494.0797	95.347
1494.5619	95.4986
1495.0439	95.6452
1495.5261	95.7996
1496.0082	95.9594
1496.4904	96.1052
1496.9724	96.2215
1497.4546	96.311
1497.9366	96.3857
1498.4188	96.4528
1498.9009	96.5115
1499.3831	96.5595
1499.8651	96.6004
1500.3473	96.6434
1500.8293	96.697
1501.3115	96.7642
1501.7936	96.8412
1502.2758	96.9194
1502.7578	96.991
1503.2400	97.0533
1503.7220	97.1085
1504.2042	97.1609
1504.6863	97.2156
1505.1685	97.2811
1505.6505	97.3737
1506.1327	97.5105
1506.6147	97.6664
1507.0969	97.768
1507.5790	97.791
1508.0612	97.7659
1508.5432	97.7247
1509.0254	97.6876
1509.5074	97.6645
1509.9896	97.656
1510.4717	97.6563
1510.9539	97.6566
1511.4359	97.6502
1511.9181	97.6354
1512.4001	97.6171
1512.8823	97.6032
1513.3644	97.5994
1513.8466	97.6073
1514.3286	97.626
1514.8108	97.6539
1515.2928	97.6867
1515.7750	97.7124
1516.2571	97.7064
1516.7393	97.6454
1517.2213	97.5394
1517.7035	97.4281
1518.1855	97.3379
1518.6677	97.2707
1519.1498	97.2185
1519.6320	97.1719
1520.1140	97.1162
1520.5962	97.0196
1521.0782	96.8359
1521.5604	96.5667
1522.0425	96.29
1522.5247	96.062
1523.0067	95.8828
1523.4889	95.7325
1523.9709	95.5896
1524.4531	95.4344
1524.9352	95.2544
1525.4174	95.055
1525.8994	94.8594
1526.3816	94.69
1526.8636	94.5519
1527.3458	94.4365
1527.8279	94.3363
1528.3101	94.2546
1528.7921	94.2031
1529.2743	94.191
1529.7563	94.2182
1530.2385	94.2772
1530.7206	94.3569
1531.2028	94.4471
1531.6848	94.5393
1532.1670	94.6276
1532.6490	94.7088
1533.1312	94.7817
1533.6133	94.8482
1534.0955	94.9135
1534.5775	94.9842
1535.0597	95.0651
1535.5417	95.1577
1536.0239	95.2603
1536.5060	95.3696
1536.9882	95.4826
1537.4702	95.6001
1537.9524	95.7305
1538.4344	95.8931
1538.9166	96.1068
1539.3987	96.3465
1539.8809	96.5316
1540.3629	96.6285
1540.8451	96.6746
1541.3271	96.7062
1541.8093	96.735
1542.2914	96.7609
1542.7736	96.7833
1543.2556	96.8049
1543.7378	96.8277
1544.2198	96.8482
1544.7020	96.8554
1545.1841	96.8384
1545.6663	96.7985
1546.1483	96.7494
1546.6305	96.7059
1547.1125	96.6752
1547.5947	96.6587
1548.0768	96.654
1548.5590	96.6558
1549.0410	96.6536
1549.5232	96.6339
1550.0052	96.5892
1550.4874	96.5289
1550.9695	96.4715
1551.4517	96.4286
1551.9337	96.4007
1552.4159	96.3817
1552.8979	96.3631
1553.3801	96.3352
1553.8622	96.2937
1554.3444	96.2492
1554.8264	96.2212
1555.3086	96.2197
1555.7906	96.2434
1556.2728	96.2902
1556.7549	96.364
1557.2371	96.4752
1557.7191	96.6357
1558.2013	96.8278
1558.6833	96.9313
1559.1655	96.8245
1559.6476	96.6421
1560.1298	96.5147
1560.6118	96.4367
1561.0940	96.3778
1561.5760	96.3208
1562.0582	96.2596
1562.5403	96.1936
1563.0225	96.1244
1563.5045	96.054
1563.9867	95.9836
1564.4688	95.9162
1564.9509	95.86
1565.4330	95.8285
1565.9152	95.8336
1566.3972	95.8788
1566.8794	95.9611
1567.3615	96.0767
1567.8436	96.228
1568.3257	96.4266
1568.8079	96.6841
1569.2899	96.9796
1569.7721	97.2426
1570.2542	97.4187
1570.7363	97.5207
1571.2184	97.5892
1571.7006	97.6546
1572.1826	97.7308
1572.6648	97.8187
1573.1469	97.9103
1573.6290	97.995
1574.1111	98.0663
1574.5933	98.1237
1575.0753	98.1681
1575.5575	98.1926
1576.0396	98.179
1576.5217	98.1183
1577.0038	98.0304
1577.4860	97.9391
1577.9680	97.8527
1578.4502	97.7702
1578.9323	97.6884
1579.4144	97.6028
1579.8965	97.5067
1580.3787	97.392
1580.8607	97.2518
1581.3429	97.0834
1581.8250	96.8904
1582.3071	96.6809
1582.7892	96.464
1583.2714	96.2444
1583.7534	96.0204
1584.2356	95.7851
1584.7177	95.5305
1585.1998	95.2519
1585.6819	94.9509
1586.1641	94.6343
1586.6461	94.3125
1587.1283	93.9958
1587.6105	93.6923
1588.0925	93.4067
1588.5747	93.1407
1589.0568	92.8955
1589.5389	92.6743
1590.0210	92.4842
1590.5032	92.3355
1590.9852	92.239
1591.4674	92.2014
1591.9495	92.2231
1592.4316	92.2971
1592.9137	92.4111
1593.3959	92.5487
1593.8779	92.6922
1594.3601	92.8254
1594.8422	92.9374
1595.3243	93.0248
1595.8064	93.091
1596.2886	93.1427
1596.7706	93.1865
1597.2528	93.2286
1597.7349	93.2745
1598.2170	93.3299
1598.6991	93.4
1599.1813	93.4879
1599.6633	93.5928
1600.1455	93.7099
1600.6276	93.8334
1601.1097	93.9607
1601.5918	94.0957
1602.0740	94.2476
1602.5560	94.4247
1603.0382	94.6276
1603.5203	94.8461
1604.0024	95.065
1604.4845	95.2733
1604.9667	95.4692
1605.4487	95.6578
1605.9309	95.8452
1606.4130	96.0324
1606.8951	96.214
1607.3772	96.3827
1607.8594	96.5342
1608.3414	96.6699
1608.8236	96.7943
1609.3057	96.9107
1609.7878	97.0185
1610.2699	97.1152
1610.7521	97.1994
1611.2341	97.2734
1611.7163	97.342
1612.1984	97.4105
1612.6805	97.4818
1613.1626	97.5548
1613.6448	97.6263
1614.1268	97.6936
1614.6090	97.7572
1615.0911	97.8208
1615.5732	97.8892
1616.0553	97.9622
1616.5375	98.0257
1617.0195	98.0605
1617.5017	98.0678
1617.9838	98.0642
1618.4659	98.0622
1618.9480	98.0663
1619.4302	98.0769
1619.9122	98.0927
1620.3944	98.112
1620.8765	98.1347
1621.3586	98.1624
1621.8407	98.1974
1622.3229	98.239
1622.8049	98.2774
1623.2871	98.2935
1623.7692	98.2762
1624.2513	98.2381
1624.7334	98.2021
1625.2156	98.1828
1625.6976	98.1851
1626.1798	98.2075
1626.6619	98.2428
1627.1440	98.2772
1627.6261	98.2945
1628.1083	98.2877
1628.5903	98.2647
1629.0725	98.2393
1629.5546	98.2199
1630.0367	98.2078
1630.5188	98.2006
1631.0010	98.1957
1631.4830	98.1917
1631.9652	98.1887
1632.4473	98.1874
1632.9294	98.1889
1633.4115	98.1952
1633.8937	98.2112
1634.3757	98.246
1634.8579	98.308
1635.3400	98.3876
1635.8221	98.4469
1636.3042	98.4603
1636.7864	98.4373
1637.2684	98.3967
1637.7506	98.35
1638.2327	98.3034
1638.7148	98.2611
1639.1969	98.2256
1639.6791	98.1977
1640.1611	98.1762
1640.6433	98.1586
1641.1254	98.1424
1641.6075	98.1269
1642.0896	98.1136
1642.5718	98.1059
1643.0538	98.1071
1643.5360	98.1194
1644.0181	98.1433
1644.5002	98.1785
1644.9823	98.2229
1645.4645	98.2695
1645.9465	98.302
1646.4287	98.2969
1646.9108	98.2422
1647.3929	98.1535
1647.8750	98.0613
1648.3572	97.9875
1648.8392	97.9394
1649.3214	97.9145
1649.8035	97.9065
1650.2856	97.909
1650.7677	97.9181
1651.2499	97.9336
1651.7319	97.9622
1652.2141	98.0174
1652.6962	98.0946
1653.1783	98.0986
1653.6604	97.9627
1654.1426	97.789
1654.6246	97.6388
1655.1068	97.515
1655.5889	97.4131
1656.0710	97.3305
1656.5531	97.2661
1657.0353	97.2171
1657.5173	97.1781
1657.9995	97.1413
1658.4816	97.0989
1658.9637	97.0465
1659.4458	96.9854
1659.9280	96.9221
1660.4100	96.8649
1660.8922	96.8201
1661.3743	96.7876
1661.8564	96.7587
1662.3385	96.7163
1662.8207	96.6481
1663.3027	96.5592
1663.7849	96.4651
1664.2670	96.3751
1664.7491	96.2893
1665.2312	96.2054
1665.7134	96.1246
1666.1954	96.053
1666.6776	95.9973
1667.1597	95.9587
1667.6418	95.9298
1668.1239	95.8936
1668.6061	95.8308
1669.0881	95.7378
1669.5703	95.6344
1670.0524	95.5397
1670.5345	95.4503
1671.0166	95.3511
1671.4988	95.2361
1671.9808	95.1169
1672.4630	95.0118
1672.9451	94.931
1673.4272	94.8706
1673.9093	94.8161
1674.3915	94.7462
1674.8735	94.6422
1675.3557	94.5107
1675.8378	94.3857
1676.3199	94.2879
1676.8020	94.2104
1677.2842	94.1406
1677.7662	94.0727
1678.2484	94.0056
1678.7305	93.939
1679.2126	93.8694
1679.6947	93.7923
1680.1769	93.7095
1680.6589	93.6342
1681.1411	93.5839
1681.6232	93.571
1682.1053	93.5998
1682.5874	93.6656
1683.0696	93.7395
1683.5516	93.7241
1684.0338	93.4602
1684.5159	93.0195
1684.9980	92.6988
1685.4801	92.5531
1685.9623	92.4971
1686.4443	92.4709
1686.9265	92.4464
1687.4086	92.4115
1687.8907	92.3615
1688.3728	92.2973
1688.8550	92.224
1689.3370	92.1487
1689.8192	92.0762
1690.3013	92.0085
1690.7834	91.9455
1691.2655	91.8875
1691.7477	91.836
1692.2297	91.7946
1692.7119	91.7671
1693.1940	91.7572
1693.6761	91.7678
1694.1582	91.7992
1694.6404	91.8449
1695.1224	91.8805
1695.6046	91.8602
1696.0867	91.7676
1696.5688	91.6612
1697.0509	91.5978
1697.5331	91.5837
1698.0151	91.604
1698.4973	91.6414
1698.9794	91.6705
1699.4615	91.6388
1699.9436	91.4812
1700.4258	91.2737
1700.9078	91.1979
1701.3900	91.2447
1701.8721	91.3335
1702.3542	91.4248
1702.8363	91.5053
1703.3185	91.5708
1703.8005	91.6211
1704.2827	91.6602
1704.7648	91.694
1705.2469	91.7241
1705.7290	91.7442
1706.2112	91.7457
1706.6932	91.7282
1707.1754	91.7029
1707.6575	91.6845
1708.1396	91.6823
1708.6217	91.6987
1709.1039	91.73
1709.5859	91.7682
1710.0681	91.803
1710.5502	91.8281
1711.0323	91.8454
1711.5144	91.8634
1711.9966	91.8915
1712.4786	91.935
1712.9608	91.9927
1713.4429	92.0541
1713.9250	92.1
1714.4071	92.1112
1714.8893	92.0879
1715.3713	92.0532
1715.8535	92.0335
1716.3356	92.0387
1716.8177	92.0539
1717.2998	92.0346
1717.7820	91.9277
1718.2640	91.7409
1718.7462	91.5481
1719.2283	91.3948
1719.7104	91.2767
1720.1925	91.1756
1720.6747	91.0788
1721.1567	90.9816
1721.6389	90.8837
1722.1210	90.7841
1722.6031	90.678
1723.0852	90.5593
1723.5674	90.4272
1724.0494	90.2891
1724.5316	90.1562
1725.0137	90.0354
1725.4958	89.9269
1725.9779	89.8277
1726.4601	89.7373
1726.9421	89.66
1727.4243	89.6017
1727.9064	89.5642
1728.3885	89.5424
1728.8706	89.5262
1729.3528	89.509
1729.8348	89.4977
1730.3170	89.5134
1730.7991	89.5753
1731.2813	89.6871
1731.7633	89.8439
1732.2455	90.0439
1732.7275	90.2936
1733.2097	90.5978
1733.6918	90.9164
1734.1740	91.1466
1734.6560	91.2557
1735.1382	91.3236
1735.6202	91.4153
1736.1024	91.5495
1736.5845	91.7235
1737.0667	91.9276
1737.5487	92.151
1738.0309	92.3872
1738.5129	92.6368
1738.9951	92.9017
1739.4772	93.1708
1739.9594	93.4146
1740.4414	93.6122
1740.9236	93.7731
1741.4056	93.9254
1741.8878	94.0972
1742.3699	94.3071
1742.8521	94.5553
1743.3341	94.8188
1743.8163	95.0638
1744.2983	95.2738
1744.7805	95.4567
1745.2626	95.6282
1745.7448	95.7967
1746.2268	95.963
1746.7090	96.1282
1747.1910	96.2991
1747.6732	96.4854
1748.1553	96.6881
1748.6375	96.8948
1749.1195	97.0893
1749.6017	97.2642
1750.0837	97.4219
1750.5659	97.5657
1751.0480	97.6918
1751.5302	97.7903
1752.0122	97.8582
1752.4944	97.9046
1752.9764	97.9418
1753.4586	97.9777
1753.9407	98.0157
1754.4229	98.0573
1754.9049	98.1053
1755.3871	98.1644
1755.8691	98.2383
1756.3513	98.3239
1756.8334	98.4095
1757.3156	98.4819
1757.7976	98.5369
1758.2798	98.5819
1758.7618	98.6268
1759.2440	98.6782
1759.7261	98.7381
1760.2083	98.8048
1760.6903	98.8735
1761.1725	98.9345
1761.6545	98.9758
1762.1367	98.9919
1762.6188	98.9906
1763.1010	98.9844
1763.5830	98.9821
1764.0652	98.9857
1764.5472	98.993
1765.0294	99.0007
1765.5115	99.0073
1765.9937	99.0154
1766.4757	99.0311
1766.9579	99.0603
1767.4399	99.1023
1767.9221	99.145
1768.4042	99.1715
1768.8864	99.1755
1769.3684	99.1664
1769.8506	99.161
1770.3326	99.1752
1770.8148	99.2205
1771.2969	99.2964
1771.7791	99.3742
1772.2611	99.4021
1772.7433	99.3601
1773.2253	99.2808
1773.7075	99.2033
1774.1896	99.1471
1774.6718	99.1163
1775.1538	99.1078
1775.6360	99.114
1776.1180	99.1249
1776.6002	99.1328
1777.0823	99.1356
1777.5645	99.1363
1778.0465	99.1401
1778.5287	99.1521
1779.0107	99.1747
1779.4929	99.2062
1779.9750	99.239
1780.4572	99.2615
1780.9392	99.2647
1781.4214	99.2495
1781.9034	99.2247
1782.3856	99.1998
1782.8677	99.18
1783.3499	99.1653
1783.8319	99.152
1784.3141	99.1376
1784.7961	99.1254
1785.2783	99.1245
1785.7604	99.143
1786.2426	99.1801
1786.7246	99.2256
1787.2068	99.2642
1787.6888	99.2824
1788.1710	99.2758
1788.6531	99.252
1789.1353	99.2281
1789.6173	99.2214
1790.0995	99.2419
1790.5815	99.2883
1791.0637	99.3488
1791.5458	99.4049
1792.0280	99.4388
1792.5100	99.4443
1792.9922	99.4301
1793.4742	99.4085
1793.9564	99.3866
1794.4385	99.3675
1794.9207	99.3547
1795.4027	99.3536
1795.8849	99.3679
1796.3669	99.3947
1796.8491	99.4239
1797.3312	99.4437
1797.8134	99.4475
1798.2954	99.4355
1798.7776	99.4152
1799.2596	99.4002
1799.7418	99.404
1800.2239	99.4309
1800.7061	99.4731
1801.1881	99.5161
1801.6703	99.547
1802.1523	99.5598
1802.6345	99.5567
1803.1166	99.5453
1803.5988	99.5321
1804.0808	99.519
1804.5630	99.5039
1805.0450	99.4841
1805.5272	99.4592
1806.0093	99.4335
1806.4915	99.4135
1806.9735	99.4056
1807.4557	99.4122
1807.9377	99.4319
1808.4199	99.4607
1808.9020	99.4947
1809.3842	99.5301
1809.8662	99.5622
1810.3484	99.5847
1810.8304	99.5917
1811.3126	99.5813
1811.7947	99.5582
1812.2769	99.5296
1812.7589	99.5016
1813.2411	99.4769
1813.7231	99.4564
1814.2053	99.4404
1814.6874	99.4304
1815.1696	99.4283
1815.6516	99.4344
1816.1338	99.4447
1816.6158	99.4511
1817.0980	99.4452
1817.5801	99.4244
1818.0623	99.3964
1818.5443	99.3762
1819.0265	99.3773
1819.5085	99.4042
1819.9907	99.4504
1820.4728	99.502
1820.9550	99.5445
1821.4370	99.5692
1821.9192	99.5757
1822.4012	99.5695
1822.8834	99.5568
1823.3655	99.5402
1823.8477	99.5192
1824.3297	99.4927
1824.8119	99.4628
1825.2939	99.4374
1825.7761	99.4254
1826.2582	99.4307
1826.7404	99.4507
1827.2224	99.4803
1827.7046	99.5133
1828.1866	99.5414
1828.6688	99.5527
1829.1509	99.5355
1829.6331	99.4903
1830.1151	99.4369
1830.5973	99.3979
1831.0793	99.3804
1831.5615	99.3782
1832.0436	99.3827
1832.5258	99.3881
1833.0078	99.3922
1833.4900	99.3942
1833.9720	99.3941
1834.4542	99.3922
1834.9363	99.3904
1835.4185	99.3928
1835.9005	99.4033
1836.3827	99.4224
1836.8647	99.4434
1837.3469	99.4549
1837.8290	99.449
1838.3112	99.4285
1838.7932	99.4068
1839.2754	99.3995
1839.7574	99.4162
1840.2396	99.4542
1840.7217	99.5005
1841.2039	99.5411
1841.6859	99.5705
1842.1681	99.5943
1842.6501	99.6229
1843.1323	99.6598
1843.6144	99.6902
1844.0966	99.6849
1844.5786	99.6319
1845.0608	99.5581
1845.5428	99.5012
1846.0250	99.4805
1846.5071	99.4941
1846.9893	99.5249
1847.4713	99.5484
1847.9535	99.5453
1848.4355	99.5154
1848.9177	99.477
1849.3998	99.4516
1849.8820	99.449
1850.3640	99.4654
1850.8462	99.491
1851.3282	99.5197
1851.8104	99.5542
1852.2925	99.6017
1852.7747	99.6632
1853.2567	99.7253
1853.7389	99.7627
1854.2209	99.7509
1854.7031	99.6833
1855.1852	99.5791
1855.6674	99.4771
1856.1494	99.4182
1856.6316	99.4257
1857.1136	99.4957
1857.5958	99.5994
1858.0779	99.6962
1858.5601	99.7514
1859.0421	99.7488
1859.5243	99.6935
1860.0063	99.6049
1860.4885	99.5084
1860.9706	99.4274
1861.4528	99.3795
1861.9348	99.3744
1862.4170	99.4117
1862.8990	99.4807
1863.3812	99.5626
1863.8633	99.635
1864.3455	99.6785
1864.8275	99.6819
1865.3097	99.6469
1865.7917	99.5882
1866.2739	99.5304
1866.7560	99.4992
1867.2382	99.5129
1867.7202	99.5744
1868.2024	99.6677
1868.6844	99.7612
1869.1666	99.8236
1869.6487	99.8438
1870.1309	99.8317
1870.6129	99.8035
1871.0951	99.7685
1871.5771	99.7285
1872.0593	99.6826
1872.5414	99.632
1873.0236	99.5807
1873.5056	99.5332
1873.9878	99.492
1874.4698	99.4583
1874.9520	99.4363
1875.4341	99.4351
1875.9163	99.4658
1876.3983	99.5333
1876.8805	99.6296
1877.3625	99.7337
1877.8447	99.82
1878.3268	99.87
1878.8090	99.8807
1879.2910	99.8633
1879.7732	99.8344
1880.2552	99.8062
1880.7374	99.7823
1881.2195	99.7611
1881.7017	99.7409
1882.1837	99.7236
1882.6659	99.7134
1883.1479	99.7122
1883.6301	99.7182
1884.1122	99.7265
1884.5944	99.7327
1885.0764	99.7348
1885.5586	99.7332
1886.0406	99.7283
1886.5228	99.7202
1887.0049	99.7105
1887.4871	99.7034
1887.9691	99.7048
1888.4513	99.7172
1888.9333	99.7332
1889.4155	99.7358
1889.8976	99.7102
1890.3798	99.6601
1890.8618	99.607
1891.3440	99.5754
1891.8260	99.5768
1892.3082	99.6032
1892.7903	99.6301
1893.2725	99.6308
1893.7545	99.5957
1894.2367	99.5447
1894.7188	99.5209
1895.2009	99.5631
1895.6830	99.6768
1896.1652	99.8258
1896.6472	99.9534
1897.1294	100.013
1897.6115	99.9897
1898.0936	99.8997
1898.5757	99.7839
1899.0579	99.6873
1899.5399	99.6405
1900.0221	99.6498
1900.5042	99.7003
1900.9863	99.7661
1901.4684	99.8216
1901.9506	99.8484
1902.4326	99.8391
1902.9148	99.7958
1903.3969	99.7294
1903.8790	99.6572
1904.3611	99.5992
1904.8433	99.5723
1905.3253	99.5829
1905.8075	99.6237
1906.2896	99.6773
1906.7717	99.7236
1907.2538	99.75
1907.7360	99.7557
1908.2180	99.7484
1908.7002	99.7341
1909.1823	99.7102
1909.6644	99.667
1910.1465	99.6006
1910.6287	99.5236
1911.1107	99.4649
1911.5929	99.454
1912.0750	99.5038
1912.5571	99.6019
1913.0392	99.7157
1913.5214	99.8093
1914.0034	99.8628
1914.4856	99.8827
1914.9677	99.8934
1915.4498	99.9157
1915.9319	99.9504
1916.4141	99.975
1916.8961	99.9544
1917.3783	99.8634
1917.8604	99.7121
1918.3425	99.5509
1918.8246	99.4347
1919.3068	99.384
1919.7888	99.3835
1920.2710	99.4035
1920.7531	99.4189
1921.2352	99.4164
1921.7173	99.3976
1922.1995	99.3761
1922.6815	99.3698
1923.1637	99.3893
1923.6458	99.4312
1924.1279	99.4823
1924.6100	99.5297
1925.0922	99.5678
1925.5742	99.6007
1926.0564	99.6378
1926.5385	99.6871
1927.0206	99.7454
1927.5027	99.796
1927.9849	99.8167
1928.4669	99.7969
1928.9491	99.7514
1929.4312	99.7192
1929.9133	99.7436
1930.3954	99.8426
1930.8776	99.991
1931.3596	100.127
1931.8418	100.182
1932.3239	100.119
1932.8060	99.9565
1933.2881	99.7518
1933.7703	99.5729
1934.2523	99.4606
1934.7345	99.415
1935.2166	99.4092
1935.6987	99.4158
1936.1808	99.4284
1936.6630	99.4646
1937.1450	99.5519
1937.6272	99.7046
1938.1093	99.9064
1938.5914	100.109
1939.0735	100.25
1939.5557	100.279
1940.0377	100.184
1940.5199	99.9894
1941.0020	99.7486
1941.4841	99.524
1941.9662	99.3672
1942.4484	99.2959
1942.9304	99.2901
1943.4126	99.3188
1943.8947	99.3736
1944.3768	99.4708
1944.8589	99.6256
1945.3411	99.8199
1945.8231	99.9878
1946.3053	100.04
1946.7874	99.9221
1947.2695	99.6586
1947.7516	99.3469
1948.2338	99.1079
1948.7158	99.0311
1949.1980	99.1414
1949.6801	99.3994
1950.1622	99.7306
1950.6443	100.06
1951.1265	100.328
1951.6085	100.49
1952.0907	100.51
1952.5728	100.38
1953.0549	100.14
1953.5370	99.8802
1954.0192	99.708
1954.5012	99.6886
1954.9834	99.8031
1955.4655	99.9567
1955.9476	100.042
1956.4297	100.014
1956.9119	99.916
1957.3939	99.8418
1957.8761	99.862
1958.3582	99.9698
1958.8403	100.088
1959.3224	100.13
1959.8046	100.065
1960.2866	99.9419
1960.7688	99.846
1961.2509	99.8354
1961.7330	99.8967
1962.2151	99.9575
1962.6973	99.9379
1963.1793	99.8047
1963.6615	99.5932
1964.1436	99.3877
1964.6257	99.2762
1965.1078	99.3081
1965.5900	99.4759
1966.0720	99.7258
1966.5542	99.9878
1967.0363	100.211
1967.5184	100.378
1968.0005	100.488
1968.4827	100.526
1968.9647	100.451
1969.4469	100.228
1969.9290	99.8782
1970.4111	99.4986
1970.8932	99.2391
1971.3754	99.229
1971.8574	99.5071
1972.3396	99.999
1972.8217	100.552
1973.3038	101.004
1973.7859	101.239
1974.2681	101.225
1974.7501	101.003
1975.2323	100.668
1975.7144	100.329
1976.1965	100.086
1976.6786	99.9874
1977.1608	100.009
1977.6428	100.057
1978.1250	100.021
1978.6071	99.8469
1979.0892	99.5801
1979.5713	99.3393
1980.0535	99.2474
1980.5355	99.3642
1981.0177	99.6576
1981.4998	100.016
1981.9819	100.297
1982.4640	100.385
1982.9462	100.237
1983.4282	99.8854
1983.9104	99.4209
1984.3925	98.9536
1984.8746	98.5896
1985.3567	98.4141
1985.8389	98.4803
1986.3209	98.7968
1986.8031	99.3119
1987.2852	99.9038
1987.7673	100.397
1988.2494	100.622
1988.7316	100.502
1989.2136	100.092
1989.6958	99.542
1990.1779	99.0164
1990.6600	98.6363
1991.1421	98.4606
1991.6243	98.4928
1992.1063	98.6968
1992.5885	99.0136
1993.0706	99.3735
1993.5527	99.7012
1994.0348	99.9235
1994.5170	99.9898
1994.9990	99.8988
1995.4812	99.7111
1995.9633	99.524
1996.4454	99.4181
1996.9275	99.4151
1997.4097	99.4785
1997.8917	99.5536
1998.3739	99.608
1998.8560	99.645
1999.3381	99.6833
1999.8202	99.729
2000.3024	99.7685
2000.7844	99.7881
2001.2666	99.7986
2001.7487	99.8365
2002.2308	99.9376
2002.7129	100.103
2003.1951	100.283
2003.6771	100.404
2004.1593	100.395
2004.6414	100.226
2005.1235	99.9071
2005.6056	99.4795
2006.0878	99.0104
2006.5698	98.5931
2007.0520	98.342
2007.5341	98.3617
2008.0162	98.6979
2008.4983	99.299
2008.9805	100.017
2009.4625	100.657
2009.9447	101.051
2010.4268	101.122
2010.9089	100.909
2011.3910	100.538
2011.8732	100.151
2012.3552	99.8475
2012.8374	99.6452
2013.3195	99.4955
2013.8016	99.3304
2014.2837	99.122
2014.7659	98.912
2015.2479	98.7903
2015.7301	98.8331
2016.2122	99.0402
2016.6943	99.3198
2017.1764	99.5418
2017.6586	99.628
2018.1406	99.6022
2018.6228	99.5582
2019.1049	99.5812
2019.5870	99.6912
2020.0691	99.8481
2020.5513	100.001
2021.0333	100.137
2021.5155	100.276
2021.9976	100.437
2022.4797	100.596
2022.9618	100.689
2023.4440	100.659
2023.9260	100.498
2024.4082	100.253
2024.8903	99.9821
2025.3724	99.7168
2025.8545	99.4609
2026.3367	99.225
2026.8187	99.0566
2027.3009	99.0277
2027.7830	99.1823
2028.2651	99.4861
2028.7472	99.824
2029.2294	100.054
2029.7114	100.083
2030.1936	99.92
2030.6757	99.6655
2031.1578	99.4523
2031.6399	99.3819
2032.1221	99.4914
2032.6041	99.7566
2033.0863	100.11
2033.5684	100.465
2034.0505	100.737
2034.5326	100.872
2035.0148	100.864
2035.4968	100.752
2035.9790	100.593
2036.4611	100.424
2036.9432	100.253
2037.4253	100.072
2037.9075	99.8853
2038.3895	99.7317
2038.8717	99.6762
2039.3538	99.7753
2039.8359	100.038
2040.3180	100.403
2040.8002	100.753
2041.2822	100.956
2041.7644	100.924
2042.2465	100.65
2042.7286	100.205
2043.2107	99.7006
2043.6929	99.2545
2044.1749	98.9552
2044.6571	98.8483
2045.1392	98.9323
2045.6213	99.1639
2046.1034	99.4695
2046.5856	99.7611
2047.0676	99.9559
2047.5498	99.9985
2048.0320	99.879
2048.5139	99.6391
2048.9961	99.3591
2049.4783	99.1284
2049.9604	99.0105
2050.4424	99.0253
2050.9246	99.1554
2051.4067	99.3667
2051.8889	99.6217
2052.3708	99.8796
2052.8530	100.091
2053.3352	100.204
2053.8174	100.185
2054.2993	100.046
2054.7815	99.8498
2055.2637	99.6829
2055.7458	99.6121
2056.2278	99.6502
2056.7100	99.7534
2057.1921	99.8495
2057.6743	99.881
2058.1563	99.8342
2058.6384	99.7382
2059.1206	99.6366
2059.6028	99.556
2060.0847	99.492
2060.5669	99.4197
2061.0491	99.3202
2061.5313	99.2018
2062.0132	99.1006
2062.4954	99.0618
2062.9775	99.1143
2063.4597	99.2535
2063.9417	99.4418
2064.4238	99.6253
2064.9060	99.7601
2065.3882	99.8327
2065.8701	99.8601
2066.3523	99.8722
2066.8345	99.8904
2067.3167	99.9159
2067.7986	99.9337
2068.2808	99.9253
2068.7629	99.8796
2069.2451	99.7966
2069.7271	99.6824
2070.2092	99.5444
2070.6914	99.3916
2071.1736	99.2387
2071.6555	99.108
2072.1377	99.0246
2072.6199	99.0055
2073.1021	99.0516
2073.5840	99.1483
2074.0662	99.276
2074.5483	99.4217
2075.0305	99.5839
2075.5125	99.7646
2075.9946	99.9567
2076.4768	100.135
2076.9590	100.262
2077.4409	100.304
2077.9231	100.253
2078.4053	100.135
2078.8875	99.9952
2079.3694	99.881
2079.8516	99.8197
2080.3337	99.8125
2080.8159	99.8421
2081.2979	99.8875
2081.7800	99.9349
2082.2622	99.9781
2082.7444	100.012
2083.2263	100.026
2083.7085	100.006
2084.1907	99.9452
2084.6729	99.8468
2085.1548	99.7302
2085.6370	99.6213
2086.1191	99.5418
2086.6013	99.5022
2087.0833	99.5029
2087.5654	99.5392
2088.0476	99.6061
2088.5298	99.6978
2089.0117	99.8047
2089.4939	99.9106
2089.9761	99.9948
2090.4583	100.038
2090.9402	100.03
2091.4224	99.9711
2091.9045	99.8756
2092.3867	99.765
2092.8687	99.664
2093.3508	99.5937
2093.8330	99.5643
2094.3152	99.5725
2094.7971	99.6059
2095.2793	99.6541
2095.7615	99.7167
2096.2437	99.8001
2096.7256	99.9025
2097.2078	99.9983
2097.6899	100.039
2098.1721	99.9746
2098.6541	99.7877
2099.1362	99.5161
2099.6184	99.2439
2100.1006	99.0633
2100.5825	99.029
2101.0647	99.1329
2101.5469	99.3138
2102.0291	99.4934
2102.5110	99.6165
2102.9932	99.6721
2103.4753	99.6851
2103.9575	99.6913
2104.4395	99.714
2104.9216	99.7569
2105.4038	99.8108
2105.8860	99.8661
2106.3679	99.9184
2106.8501	99.9664
2107.3323	100.006
2107.8145	100.026
2108.2964	100.012
2108.7786	99.954
2109.2607	99.8539
2109.7429	99.7288
2110.2249	99.609
2110.7070	99.5269
2111.1892	99.5026
2111.6714	99.5335
2112.1533	99.5949
2112.6355	99.6536
2113.1177	99.6865
2113.5999	99.6922
2114.0818	99.6875
2114.5640	99.6918
2115.0461	99.7112
2115.5283	99.7357
2116.0103	99.7487
2116.4924	99.7426
2116.9746	99.7247
2117.4568	99.7107
2117.9387	99.7115
2118.4209	99.725
2118.9031	99.7397
2119.3853	99.7458
2119.8672	99.7439
2120.3494	99.7432
2120.8315	99.7527
2121.3137	99.7724
2121.7957	99.7945
2122.2778	99.8121
2122.7600	99.8268
2123.2422	99.8484
2123.7241	99.8856
2124.2063	99.9334
2124.6885	99.9709
2125.1707	99.9705
2125.6526	99.9162
2126.1348	99.8176
2126.6169	99.7094
2127.0991	99.6344
2127.5811	99.6209
2128.0632	99.667
2128.5454	99.7423
2129.0276	99.8086
2129.5095	99.8446
2129.9917	99.8603
2130.4739	99.8875
2130.9561	99.9531
2131.4380	100.052
2131.9202	100.142
2132.4023	100.165
2132.8845	100.087
2133.3665	99.928
2133.8486	99.7617
2134.3308	99.6763
2134.8130	99.7216
2135.2949	99.8768
2135.7771	100.063
2136.2593	100.188
2136.7415	100.203
2137.2234	100.118
2137.7056	99.9861
2138.1877	99.8575
2138.6699	99.7454
2139.1519	99.6258
2139.6340	99.4689
2140.1162	99.2764
2140.5984	99.0936
2141.0803	98.9861
2141.5625	98.9982
2142.0447	99.1246
2142.5269	99.3157
2143.0088	99.512
2143.4910	99.6805
2143.9731	99.8253
2144.4553	99.9655
2144.9373	100.101
2145.4194	100.195
2145.9016	100.19
2146.3838	100.048
2146.8657	99.779
2147.3479	99.449
2147.8301	99.1433
2148.3123	98.9267
2148.7942	98.8166
2149.2764	98.7847
2149.7585	98.7821
2150.2407	98.7688
2150.7227	98.7315
2151.2048	98.6865
2151.6870	98.6706
2152.1692	98.7252
2152.6511	98.8797
2153.1333	99.1384
2153.6155	99.4771
2154.0977	99.8524
2154.5796	100.221
2155.0618	100.562
2155.5439	100.888
2156.0261	101.237
2156.5081	101.655
2156.9902	102.163
2157.4724	102.739
2157.9546	103.298
2158.4365	103.7
2158.9187	103.795
2159.4009	103.494
2159.8831	102.829
2160.3650	101.946
2160.8472	101.036
2161.3293	100.262
2161.8115	99.7029
2162.2935	99.3537
2162.7756	99.1505
2163.2578	99.0219
2163.7400	98.9312
2164.2219	98.8897
2164.7041	98.9342
2165.1863	99.0879
2165.6685	99.3321
2166.1504	99.6074
2166.6326	99.8439
2167.1147	99.9977
2167.5969	100.071
2168.0789	100.108
2168.5610	100.165
2169.0432	100.28
2169.5254	100.452
2170.0073	100.638
2170.4895	100.77
2170.9717	100.789
2171.4539	100.662
2171.9358	100.395
2172.4180	100.036
2172.9001	99.653
2173.3823	99.3233
2173.8643	99.1102
2174.3464	99.0499
2174.8286	99.1446
2175.3108	99.3651
2175.7927	99.6591
2176.2749	99.9613
2176.7571	100.202
2177.2393	100.315
2177.7212	100.253
2178.2034	100.009
2178.6855	99.6309
2179.1677	99.219
2179.6497	98.896
2180.1318	98.7537
2180.6140	98.8087
2181.0962	98.996
2181.5781	99.2093
2182.0603	99.3639
2182.5425	99.4403
2183.0247	99.4782
2183.5066	99.5317
2183.9888	99.6219
2184.4709	99.7234
2184.9531	99.7896
2185.4351	99.7898
2185.9172	99.7286
2186.3994	99.6372
2186.8816	99.5476
2187.3635	99.4745
2187.8457	99.416
2188.3279	99.3699
2188.8101	99.3482
2189.2920	99.3758
2189.7742	99.4732
2190.2563	99.6352
2190.7385	99.8212
2191.2205	99.967
2191.7026	100.016
2192.1848	99.9503
2192.6670	99.809
2193.1489	99.6688
2193.6311	99.6056
2194.1133	99.6532
2194.5955	99.7856
2195.0774	99.9326
2195.5596	100.019
2196.0417	100.005
2196.5239	99.9035
2197.0059	99.7642
2197.4880	99.6469
2197.9702	99.5902
2198.4524	99.5989
2198.9343	99.648
2199.4165	99.6991
2199.8987	99.7211
2200.3809	99.705
2200.8628	99.6686
2201.3450	99.6465
2201.8271	99.6693
2202.3093	99.7435
2202.7913	99.8456
2203.2734	99.9367
2203.7556	99.9866
2204.2378	99.9916
2204.7197	99.9726
2205.2019	99.9559
2205.6841	99.9541
2206.1663	99.9603
2206.6482	99.9578
2207.1304	99.9348
2207.6125	99.8916
2208.0947	99.839
2208.5767	99.7908
2209.0588	99.7587
2209.5410	99.7484
2210.0232	99.7558
2210.5051	99.764
2210.9873	99.7479
2211.4695	99.6882
2211.9517	99.5883
2212.4336	99.4802
2212.9158	99.4083
2213.3979	99.4015
2213.8801	99.4524
2214.3621	99.5216
2214.8442	99.5654
2215.3264	99.5656
2215.8086	99.5395
2216.2905	99.5238
2216.7727	99.546
2217.2549	99.603
2217.7371	99.661
2218.2190	99.6713
2218.7012	99.5932
2219.1833	99.4124
2219.6655	99.1536
2220.1475	98.882
2220.6296	98.6888
2221.1118	98.6568
2221.5940	98.8173
2222.0759	99.1222
2222.5581	99.4554
2223.0403	99.6869
2223.5225	99.7428
2224.0044	99.644
2224.4866	99.4857
2224.9688	99.3707
2225.4509	99.3455
2225.9329	99.3819
2226.4150	99.4115
2226.8972	99.3841
2227.3794	99.305
2227.8613	99.2247
2228.3435	99.1936
2228.8257	99.22
2229.3079	99.2637
2229.7898	99.2658
2230.2720	99.1909
2230.7542	99.05
2231.2363	98.89
2231.7183	98.7615
2232.2004	98.6913
2232.6826	98.6771
2233.1648	98.7022
2233.6467	98.7548
2234.1289	98.8368
2234.6111	98.9576
2235.0933	99.1216
2235.5752	99.3183
2236.0574	99.5224
2236.5396	99.6999
2237.0217	99.8175
2237.5037	99.8519
2237.9858	99.7982
2238.4680	99.6749
2238.9502	99.5208
2239.4321	99.3805
2239.9143	99.2847
2240.3965	99.2352
2240.8787	99.2067
2241.3606	99.1669
2241.8428	99.1007
2242.3250	99.0219
2242.8071	98.9632
2243.2891	98.9498
2243.7712	98.9784
2244.2534	99.0171
2244.7356	99.0293
2245.2175	99.0019
2245.6997	98.9599
2246.1819	98.9522
2246.6641	99.0209
2247.1460	99.1701
2247.6282	99.3581
2248.1104	99.516
2248.5925	99.5834
2249.0745	99.541
2249.5566	99.4201
2250.0388	99.2858
2250.5210	99.2026
2251.0029	99.2029
2251.4851	99.2728
2251.9673	99.3626
2252.4495	99.4136
2252.9314	99.3878
2253.4136	99.2855
2253.8958	99.1429
2254.3779	99.0141
2254.8599	98.9476
2255.3420	98.9671
2255.8242	99.064
2256.3064	99.201
2256.7883	99.3266
2257.2705	99.3954
2257.7527	99.3886
2258.2349	99.3245
2258.7168	99.2519
2259.1990	99.2263
2259.6812	99.2797
2260.1633	99.4016
2260.6453	99.5441
2261.1274	99.6491
2261.6096	99.6817
2262.0918	99.6482
2262.5737	99.5871
2263.0559	99.5427
2263.5381	99.5383
2264.0203	99.5683
2264.5022	99.6083
2264.9844	99.635
2265.4666	99.6375
2265.9487	99.6169
2266.4307	99.5773
2266.9128	99.52
2267.3950	99.4463
2267.8772	99.3636
2268.3591	99.2879
2268.8413	99.2382
2269.3235	99.2261
2269.8057	99.2497
2270.2876	99.2963
2270.7698	99.3505
2271.2520	99.4024
2271.7341	99.4496
2272.2161	99.4922
2272.6982	99.5289
2273.1804	99.555
2273.6626	99.5673
2274.1445	99.5669
2274.6267	99.5606
2275.1089	99.5556
2275.5911	99.5544
2276.0730	99.5524
2276.5552	99.5411
2277.0374	99.5149
2277.5195	99.4767
2278.0015	99.4387
2278.4836	99.4176
2278.9658	99.4257
2279.4480	99.464
2279.9299	99.5202
2280.4121	99.5741
2280.8943	99.6076
2281.3765	99.614
2281.8584	99.6022
2282.3406	99.5908
2282.8228	99.5973
2283.3049	99.6269
2283.7869	99.67
2284.2690	99.7073
2284.7512	99.7219
2285.2334	99.7091
2285.7153	99.6784
2286.1975	99.6467
2286.6797	99.6274
2287.1619	99.6224
2287.6438	99.6217
2288.1260	99.6097
2288.6082	99.5745
2289.0903	99.5154
2289.5723	99.4445
2290.0544	99.3818
2290.5366	99.3465
2291.0188	99.3466
2291.5007	99.3731
2291.9829	99.4031
2292.4651	99.4098
2292.9473	99.378
2293.4292	99.3134
2293.9114	99.2421
2294.3936	99.1969
2294.8757	99.2
2295.3577	99.2501
2295.8398	99.3243
2296.3220	99.3899
2296.8042	99.423
2297.2861	99.4194
2297.7683	99.3956
2298.2505	99.3774
2298.7327	99.385
2299.2146	99.4228
2299.6968	99.4774
2300.1790	99.5264
2300.6611	99.5511
2301.1431	99.5475
2301.6252	99.5273
2302.1074	99.5094
2302.5896	99.507
2303.0715	99.5189
2303.5537	99.5326
2304.0359	99.5346
2304.5181	99.5211
2305.0000	99.4998
2305.4822	99.4822
2305.9644	99.4725
2306.4465	99.4634
2306.9285	99.4434
2307.4106	99.4097
2307.8928	99.3744
2308.3750	99.3578
2308.8569	99.3729
2309.3391	99.4142
2309.8213	99.4606
2310.3035	99.4907
2310.7854	99.4978
2311.2676	99.4921
2311.7498	99.4878
2312.2319	99.4881
2312.7139	99.4805
2313.1960	99.448
2313.6782	99.386
2314.1604	99.3098
2314.6423	99.2469
2315.1245	99.2209
2315.6067	99.2391
2316.0889	99.2913
2316.5708	99.3585
2317.0530	99.4225
2317.5352	99.4706
2318.0173	99.4944
2318.4993	99.4872
2318.9814	99.4451
2319.4636	99.3715
2319.9458	99.2804
2320.4277	99.1937
2320.9099	99.1316
2321.3921	99.1037
2321.8743	99.1058
2322.3562	99.1262
2322.8384	99.1541
2323.3206	99.1856
2323.8027	99.2233
2324.2847	99.2696
2324.7668	99.3215
2325.2490	99.3694
2325.7312	99.4013
2326.2131	99.4089
2326.6953	99.393
2327.1775	99.3634
2327.6597	99.333
2328.1416	99.3085
2328.6238	99.285
2329.1060	99.2494
2329.5881	99.1944
2330.0701	99.1291
2330.5522	99.078
2331.0344	99.0655
2331.5166	99.0967
2331.9985	99.1503
2332.4807	99.1907
2332.9629	99.1914
2333.4451	99.1506
2333.9270	99.0889
2334.4092	99.0324
2334.8914	98.9969
2335.3735	98.9839
2335.8555	98.9861
2336.3376	98.9964
2336.8198	99.0122
2337.3020	99.0323
2337.7839	99.0532
2338.2661	99.0697
2338.7483	99.0793
2339.2305	99.0854
2339.7124	99.0942
2340.1946	99.1056
2340.6768	99.1092
2341.1589	99.0915
2341.6409	99.05
2342.1230	99.0015
2342.6052	98.9744
2343.0874	98.9879
2343.5693	99.0345
2344.0515	99.0814
2344.5337	99.0947
2345.0159	99.068
2345.4978	99.0304
2345.9800	99.0238
2346.4622	99.0672
2346.9443	99.1426
2347.4263	99.2134
2347.9084	99.2529
2348.3906	99.2564
2348.8728	99.2381
2349.3547	99.2208
2349.8369	99.2248
2350.3191	99.2534
2350.8013	99.284
2351.2832	99.2746
2351.7654	99.1951
2352.2476	99.0581
2352.7297	98.9183
2353.2117	98.8397
2353.6938	98.8557
2354.1760	98.9479
2354.6582	99.0591
2355.1401	99.1355
2355.6223	99.167
2356.1045	99.1914
2356.5867	99.2593
2357.0686	99.3877
2357.5508	99.5378
2358.0330	99.6348
2358.5151	99.6121
2358.9971	99.4519
2359.4792	99.1981
2359.9614	98.9373
2360.4436	98.7584
2360.9255	98.7124
2361.4077	98.7922
2361.8899	98.9366
2362.3721	99.0595
2362.8540	99.0916
2363.3362	99.0187
2363.8184	98.8888
2364.3005	98.7823
2364.7825	98.7634
2365.2646	98.8449
2365.7468	98.9898
2366.2290	99.1405
2366.7109	99.253
2367.1931	99.3126
2367.6753	99.3274
2368.1575	99.3109
2368.6394	99.2712
2369.1216	99.2116
2369.6038	99.1383
2370.0859	99.0647
2370.5679	99.0083
2371.0500	98.9839
2371.5322	98.9984
2372.0144	99.0489
2372.4963	99.1256
2372.9785	99.2144
2373.4607	99.3004
2373.9429	99.3703
2374.4248	99.4152
2374.9070	99.4322
2375.3892	99.4245
2375.8713	99.4001
2376.3533	99.3693
2376.8354	99.3434
2377.3176	99.332
2377.7998	99.3398
2378.2817	99.3646
2378.7639	99.3966
2379.2461	99.4228
2379.7283	99.4332
2380.2102	99.4261
2380.6924	99.4082
2381.1746	99.3905
2381.6567	99.3812
2382.1387	99.3823
2382.6208	99.3902
2383.1030	99.4009
2383.5852	99.4133
2384.0671	99.4303
2384.5493	99.4557
2385.0315	99.4907
2385.5137	99.5321
2385.9956	99.5733
2386.4778	99.6081
2386.9600	99.6327
2387.4421	99.6466
2387.9241	99.6513
2388.4063	99.6481
2388.8884	99.6366
2389.3706	99.6153
2389.8525	99.5829
2390.3347	99.541
2390.8169	99.4949
2391.2991	99.4541
2391.7810	99.4285
2392.2632	99.4244
2392.7454	99.4399
2393.2275	99.4651
2393.7095	99.4857
2394.1917	99.491
2394.6738	99.4793
2395.1560	99.4592
2395.6379	99.444
2396.1201	99.4431
2396.6023	99.4565
2397.0845	99.4749
2397.5664	99.4868
2398.0486	99.4856
2398.5308	99.4739
2399.0129	99.4611
2399.4949	99.457
2399.9771	99.4665
2400.4592	99.4881
2400.9414	99.517
2401.4233	99.5483
2401.9055	99.5784
2402.3877	99.603
2402.8699	99.6147
2403.3518	99.6042
2403.8340	99.5653
2404.3162	99.5008
2404.7983	99.426
2405.2803	99.3644
2405.7625	99.3381
2406.2446	99.3574
2406.7268	99.4151
2407.2087	99.4895
2407.6909	99.555
2408.1731	99.5921
2408.6553	99.595
2409.1372	99.5702
2409.6194	99.5317
2410.1016	99.4943
2410.5837	99.4692
2411.0657	99.4622
2411.5479	99.4728
2412.0300	99.4946
2412.5122	99.5159
2412.9941	99.524
2413.4763	99.5116
2413.9585	99.4818
2414.4407	99.4485
2414.9226	99.4296
2415.4048	99.4374
2415.8870	99.4718
2416.3691	99.5201
2416.8511	99.5649
2417.3333	99.593
2417.8154	99.6009
2418.2976	99.5932
2418.7795	99.5772
2419.2617	99.5578
2419.7439	99.5358
2420.2261	99.5105
2420.7080	99.483
2421.1902	99.4569
2421.6724	99.4373
2422.1545	99.4282
2422.6365	99.4294
2423.1187	99.4363
2423.6008	99.441
2424.0830	99.4352
2424.5649	99.4153
2425.0471	99.385
2425.5293	99.3556
2426.0115	99.3412
2426.4934	99.3511
2426.9756	99.3848
2427.4578	99.4311
2427.9399	99.474
2428.4219	99.5006
2428.9041	99.5069
2429.3862	99.4979
2429.8684	99.4834
2430.3503	99.4735
2430.8325	99.4756
2431.3147	99.4927
2431.7969	99.5228
2432.2788	99.5583
2432.7610	99.5862
2433.2432	99.5928
2433.7253	99.5704
2434.2073	99.5231
2434.6895	99.4672
2435.1716	99.4235
2435.6538	99.4073
2436.1357	99.42
2436.6179	99.4508
2437.1001	99.4847
2437.5823	99.512
2438.0642	99.5321
2438.5464	99.5494
2439.0286	99.5655
2439.5107	99.5759
2439.9927	99.5729
2440.4749	99.5531
2440.9570	99.5229
2441.4392	99.4957
2441.9211	99.4841
2442.4033	99.4914
2442.8855	99.5098
2443.3677	99.5261
2443.8496	99.5306
2444.3318	99.5227
2444.8140	99.5096
2445.2961	99.501
2445.7781	99.5023
2446.2603	99.5124
2446.7424	99.5249
2447.2246	99.5323
2447.7065	99.5308
2448.1887	99.5222
2448.6709	99.5137
2449.1531	99.5132
2449.6350	99.524
2450.1172	99.5407
2450.5994	99.5509
2451.0815	99.5427
2451.5635	99.514
2452.0457	99.4761
2452.5278	99.4489
2453.0100	99.449
2453.4919	99.4796
2453.9741	99.5287
2454.4563	99.5771
2454.9385	99.6099
2455.4204	99.6229
2455.9026	99.6217
2456.3848	99.6143
2456.8669	99.605
2457.3489	99.5937
2457.8311	99.5782
2458.3132	99.5581
2458.7954	99.5356
2459.2773	99.5139
2459.7595	99.4958
2460.2417	99.4823
2460.7239	99.473
2461.2058	99.4653
2461.6880	99.4552
2462.1702	99.4384
2462.6523	99.4149
2463.1343	99.3915
2463.6165	99.3807
2464.0986	99.3946
2464.5808	99.4366
2465.0627	99.4973
2465.5449	99.5581
2466.0271	99.6004
2466.5093	99.6151
2466.9912	99.6057
2467.4734	99.5837
2467.9556	99.5615
2468.4377	99.546
2468.9197	99.538
2469.4019	99.5339
2469.8840	99.5295
2470.3662	99.521
2470.8481	99.5058
2471.3303	99.4829
2471.8125	99.4546
2472.2947	99.4267
2472.7766	99.4071
2473.2588	99.4016
2473.7410	99.4106
2474.2231	99.4282
2474.7051	99.4459
2475.1873	99.4576
2475.6694	99.4635
2476.1516	99.4697
2476.6335	99.4837
2477.1157	99.5095
2477.5979	99.5448
2478.0801	99.5814
2478.5620	99.6086
2479.0442	99.6178
2479.5264	99.6057
2480.0085	99.5751
2480.4905	99.535
2480.9727	99.4964
2481.4548	99.4684
2481.9370	99.4534
2482.4189	99.4457
2482.9011	99.4349
2483.3833	99.413
2483.8655	99.3811
2484.3474	99.3503
2484.8296	99.336
2485.3118	99.3484
2485.7939	99.3853
2486.2759	99.4335
2486.7581	99.4765
2487.2402	99.5034
2487.7224	99.5136
2488.2043	99.5131
2488.6865	99.5081
2489.1687	99.4997
2489.6509	99.4844
2490.1328	99.4591
2490.6150	99.4246
2491.0972	99.3861
2491.5793	99.3513
2492.0613	99.3275
2492.5435	99.3204
2493.0256	99.3336
2493.5078	99.3671
2493.9897	99.4145
2494.4719	99.4632
2494.9541	99.4978
2495.4363	99.5089
2495.9182	99.4993
2496.4004	99.4841
2496.8826	99.4808
2497.3647	99.4975
2497.8467	99.5262
2498.3289	99.5474
2498.8110	99.5439
2499.2932	99.5138
2499.7751	99.4724
2500.2573	99.4431
2500.7395	99.4416
2501.2217	99.4659
2501.7036	99.4977
2502.1858	99.5146
2502.6680	99.5041
2503.1501	99.4698
2503.6321	99.428
2504.1143	99.3975
2504.5964	99.3901
2505.0786	99.4067
2505.5605	99.4404
2506.0427	99.4812
2506.5249	99.5208
2507.0071	99.5541
2507.4890	99.5788
2507.9712	99.5947
2508.4534	99.6026
2508.9355	99.603
2509.4175	99.5949
2509.8997	99.5754
2510.3818	99.5423
2510.8640	99.4979
2511.3459	99.4506
2511.8281	99.4127
2512.3103	99.3942
2512.7925	99.3963
2513.2744	99.4113
2513.7566	99.4279
2514.2388	99.4395
2514.7209	99.4484
2515.2029	99.4624
2515.6851	99.4871
2516.1672	99.5208
2516.6494	99.5554
2517.1313	99.583
2517.6135	99.6005
2518.0957	99.6095
2518.5779	99.6115
2519.0598	99.6044
2519.5420	99.5845
2520.0242	99.5531
2520.5063	99.5188
2520.9883	99.4939
2521.4705	99.485
2521.9526	99.4877
2522.4348	99.4895
2522.9167	99.4808
2523.3989	99.4636
2523.8811	99.4513
2524.3633	99.4579
2524.8452	99.4866
2525.3274	99.526
2525.8096	99.5583
2526.2917	99.5706
2526.7737	99.5627
2527.2559	99.5444
2527.7380	99.5276
2528.2202	99.5187
2528.7021	99.5168
2529.1843	99.5176
2529.6665	99.5164
2530.1487	99.5101
2530.6306	99.4973
2531.1128	99.479
2531.5950	99.4596
2532.0771	99.4461
2532.5591	99.4445
2533.0413	99.4548
2533.5234	99.4692
2534.0056	99.4766
2534.4875	99.471
2534.9697	99.4564
2535.4519	99.4452
2535.9341	99.4498
2536.4160	99.4741
2536.8982	99.5111
2537.3804	99.5485
2537.8625	99.5765
2538.3445	99.5921
2538.8267	99.5976
2539.3088	99.5953
2539.7910	99.5841
2540.2729	99.562
2540.7551	99.5306
2541.2373	99.4982
2541.7195	99.4768
2542.2014	99.4754
2542.6836	99.4934
2543.1658	99.5195
2543.6479	99.5375
2544.1299	99.5352
2544.6121	99.5101
2545.0942	99.471
2545.5764	99.4318
2546.0583	99.4052
2546.5405	99.3965
2547.0227	99.4026
2547.5049	99.4156
2547.9868	99.4277
2548.4690	99.4353
2548.9512	99.4399
2549.4333	99.445
2549.9153	99.4519
2550.3975	99.4572
2550.8796	99.4541
2551.3618	99.4373
2551.8438	99.4093
2552.3259	99.3812
2552.8081	99.3683
2553.2903	99.3813
2553.7722	99.4188
2554.2544	99.4671
2554.7366	99.5076
2555.2188	99.5275
2555.7007	99.5271
2556.1829	99.5178
2556.6650	99.5136
2557.1472	99.5223
2557.6292	99.5414
2558.1113	99.5625
2558.5935	99.5773
2559.0757	99.5826
2559.5576	99.5789
2560.0398	99.5671
2560.5220	99.5452
2561.0042	99.5105
2561.4861	99.4637
2561.9683	99.4116
2562.4504	99.3651
2562.9326	99.3338
2563.4146	99.3205
2563.8967	99.3203
2564.3789	99.3252
2564.8611	99.3305
2565.3430	99.3379
2565.8252	99.3535
2566.3074	99.3819
2566.7896	99.4206
2567.2715	99.4603
2567.7537	99.4896
2568.2358	99.502
2568.7180	99.4995
2569.2000	99.4902
2569.6821	99.4826
2570.1643	99.4807
2570.6465	99.4833
2571.1284	99.4872
2571.6106	99.4901
2572.0928	99.492
2572.5750	99.4924
2573.0569	99.4889
2573.5391	99.4768
2574.0212	99.4531
2574.5034	99.4191
2574.9856	99.3817
2575.4675	99.35
2575.9497	99.3319
2576.4319	99.3301
2576.9141	99.3421
2577.3960	99.3613
2577.8782	99.379
2578.3604	99.388
2578.8425	99.3854
2579.3245	99.3755
2579.8066	99.3684
2580.2888	99.3757
2580.7710	99.4022
2581.2529	99.4427
2581.7351	99.4839
2582.2173	99.5133
2582.6995	99.5281
2583.1814	99.5368
2583.6636	99.5519
2584.1458	99.5784
2584.6279	99.6081
2585.1099	99.6238
2585.5920	99.6112
2586.0742	99.5694
2586.5564	99.5123
2587.0383	99.4603
2587.5205	99.4286
2588.0027	99.4205
2588.4849	99.4292
2588.9668	99.4445
2589.4490	99.4599
2589.9312	99.4735
2590.4133	99.4859
2590.8953	99.4973
2591.3774	99.5064
2591.8596	99.513
2592.3418	99.5186
2592.8237	99.5256
2593.3059	99.5347
2593.7881	99.5433
2594.2703	99.5477
2594.7522	99.5469
2595.2344	99.5444
2595.7166	99.547
2596.1987	99.5585
2596.6807	99.5753
2597.1628	99.5867
2597.6450	99.5813
2598.1272	99.5548
2598.6091	99.5151
2599.0913	99.4785
2599.5735	99.4605
2600.0557	99.4669
2600.5376	99.4904
2601.0198	99.5156
2601.5020	99.5284
2601.9841	99.5237
2602.4661	99.5067
2602.9482	99.4885
2603.4304	99.4791
2603.9126	99.4833
2604.3945	99.5
2604.8767	99.5242
2605.3589	99.5496
2605.8411	99.5701
2606.3230	99.58
2606.8052	99.575
2607.2874	99.5546
2607.7695	99.523
2608.2515	99.4892
2608.7336	99.4634
2609.2158	99.4534
2609.6980	99.4608
2610.1799	99.4809
2610.6621	99.5053
2611.1443	99.5256
2611.6265	99.5371
2612.1084	99.5399
2612.5906	99.5371
2613.0728	99.5322
2613.5549	99.527
2614.0369	99.5204
2614.5190	99.5099
2615.0012	99.4932
2615.4834	99.4711
2615.9653	99.4479
2616.4475	99.4307
2616.9297	99.4269
2617.4119	99.4402
2617.8938	99.4686
2618.3760	99.5037
2618.8582	99.5342
2619.3403	99.5503
2619.8223	99.549
2620.3044	99.5352
2620.7866	99.5195
2621.2688	99.5113
2621.7507	99.5141
2622.2329	99.5233
2622.7151	99.5293
2623.1973	99.5237
2623.6792	99.5043
2624.1614	99.4766
2624.6436	99.4504
2625.1257	99.435
2625.6077	99.4352
2626.0898	99.4498
2626.5720	99.4733
2627.0542	99.4979
2627.5361	99.5162
2628.0183	99.5228
2628.5005	99.5161
2628.9827	99.4985
2629.4646	99.4762
2629.9468	99.4571
2630.4290	99.4471
2630.9111	99.4482
2631.3931	99.4586
2631.8752	99.4741
2632.3574	99.4912
2632.8396	99.5085
2633.3215	99.5257
2633.8037	99.5421
2634.2859	99.5552
2634.7681	99.5613
2635.2500	99.5577
2635.7322	99.5445
2636.2144	99.5245
2636.6965	99.5024
2637.1785	99.4827
2637.6606	99.4686
2638.1428	99.4616
2638.6250	99.4612
2639.1069	99.4653
2639.5891	99.4708
2640.0713	99.4748
2640.5535	99.4762
2641.0354	99.4765
2641.5176	99.4786
2641.9998	99.4846
2642.4819	99.4933
2642.9639	99.4999
2643.4460	99.4994
2643.9282	99.4898
2644.4104	99.4745
2644.8923	99.4611
2645.3745	99.4563
2645.8567	99.4626
2646.3389	99.4765
2646.8208	99.4916
2647.3030	99.502
2647.7852	99.506
2648.2673	99.5055
2648.7493	99.5038
2649.2314	99.5028
2649.7136	99.502
2650.1958	99.4988
2650.6777	99.491
2651.1599	99.478
2651.6421	99.4614
2652.1243	99.4446
2652.6062	99.431
2653.0884	99.4223
2653.5706	99.4179
2654.0527	99.415
2654.5347	99.4109
2655.0168	99.4046
2655.4990	99.3986
2655.9812	99.397
2656.4631	99.4038
2656.9453	99.4195
2657.4275	99.4409
2657.9097	99.4633
2658.3916	99.4826
2658.8738	99.4975
2659.3560	99.509
2659.8381	99.5177
2660.3201	99.5227
2660.8022	99.521
2661.2844	99.5107
2661.7666	99.4927
2662.2485	99.4719
2662.7307	99.4547
2663.2129	99.4458
2663.6951	99.4454
2664.1770	99.4491
2664.6592	99.4515
2665.1414	99.449
2665.6235	99.4426
2666.1055	99.4365
2666.5876	99.4355
2667.0698	99.4415
2667.5520	99.4526
2668.0339	99.4648
2668.5161	99.4741
2668.9983	99.4794
2669.4805	99.4825
2669.9624	99.4861
2670.4446	99.4924
2670.9268	99.501
2671.4089	99.5097
2671.8909	99.5153
2672.3730	99.5156
2672.8552	99.5095
2673.3374	99.498
2673.8193	99.4833
2674.3015	99.4689
2674.7837	99.458
2675.2659	99.4532
2675.7478	99.4546
2676.2300	99.4598
2676.7122	99.4646
2677.1943	99.4645
2677.6763	99.4572
2678.1584	99.4441
2678.6406	99.4294
2679.1228	99.4191
2679.6047	99.4174
2680.0869	99.4253
2680.5691	99.4395
2681.0513	99.4545
2681.5332	99.4651
2682.0154	99.4687
2682.4976	99.4667
2682.9797	99.4638
2683.4617	99.4654
2683.9438	99.4753
2684.4260	99.4938
2684.9082	99.5172
2685.3901	99.5392
2685.8723	99.5538
2686.3545	99.5573
2686.8367	99.5505
2687.3186	99.5376
2687.8008	99.5248
2688.2830	99.5167
2688.7651	99.5144
2689.2471	99.5153
2689.7292	99.5147
2690.2114	99.5091
2690.6936	99.4983
2691.1755	99.4858
2691.6577	99.4766
2692.1399	99.4744
2692.6221	99.4788
2693.1040	99.4852
2693.5862	99.4874
2694.0684	99.481
2694.5505	99.4666
2695.0325	99.4496
2695.5146	99.4375
2695.9968	99.4358
2696.4790	99.4445
2696.9609	99.4586
2697.4431	99.471
2697.9253	99.4771
2698.4075	99.4768
2698.8894	99.4739
2699.3716	99.4725
2699.8538	99.474
2700.3359	99.4754
2700.8179	99.4721
2701.3000	99.4616
2701.7822	99.4452
2702.2644	99.4282
2702.7463	99.4164
2703.2285	99.4129
2703.7107	99.4169
2704.1929	99.4247
2704.6748	99.4327
2705.1570	99.439
2705.6392	99.4439
2706.1213	99.4483
2706.6033	99.4521
2707.0854	99.4537
2707.5676	99.4513
2708.0498	99.4442
2708.5317	99.434
2709.0139	99.4243
2709.4961	99.4197
2709.9783	99.4236
2710.4602	99.437
2710.9424	99.4569
2711.4246	99.4775
2711.9067	99.4913
2712.3887	99.4924
2712.8708	99.4798
2713.3530	99.4581
2713.8352	99.4357
2714.3171	99.4207
2714.7993	99.4165
2715.2815	99.4204
2715.7637	99.4258
2716.2456	99.4268
2716.7278	99.4218
2717.2100	99.4141
2717.6921	99.4085
2718.1741	99.4081
2718.6563	99.4125
2719.1384	99.4181
2719.6206	99.421
2720.1025	99.4192
2720.5847	99.4129
2721.0669	99.4034
2721.5491	99.3923
2722.0310	99.3814
2722.5132	99.3735
2722.9954	99.3719
2723.4775	99.3794
2723.9595	99.3962
2724.4417	99.4184
2724.9238	99.4395
2725.4060	99.4532
2725.8879	99.4566
2726.3701	99.4514
2726.8523	99.4421
2727.3345	99.4327
2727.8164	99.4243
2728.2986	99.4153
2728.7808	99.4032
2729.2629	99.388
2729.7449	99.3733
2730.2271	99.3648
2730.7092	99.367
2731.1914	99.38
2731.6733	99.4
2732.1555	99.4207
2732.6377	99.4366
2733.1199	99.4445
2733.6018	99.4443
2734.0840	99.4368
2734.5662	99.4234
2735.0483	99.4063
2735.5303	99.3889
2736.0125	99.3759
2736.4946	99.3715
2736.9768	99.3771
2737.4587	99.3897
2737.9409	99.4032
2738.4231	99.4109
2738.9053	99.4092
2739.3872	99.3989
2739.8694	99.3849
2740.3516	99.3731
2740.8337	99.368
2741.3157	99.3709
2741.7979	99.3802
2742.2800	99.3927
2742.7622	99.4046
2743.2441	99.4128
2743.7263	99.4153
2744.2085	99.4111
2744.6907	99.4009
2745.1726	99.3863
2745.6548	99.3699
2746.1370	99.3545
2746.6191	99.3422
2747.1011	99.3339
2747.5833	99.3298
2748.0654	99.3291
2748.5476	99.3313
2749.0295	99.3358
2749.5117	99.342
2749.9939	99.3489
2750.4761	99.3552
2750.9580	99.3598
2751.4402	99.3623
2751.9224	99.3632
2752.4045	99.3634
2752.8865	99.3634
2753.3687	99.3621
2753.8508	99.3577
2754.3330	99.3484
2754.8149	99.3344
2755.2971	99.3182
2755.7793	99.3039
2756.2615	99.2956
2756.7434	99.2954
2757.2256	99.3029
2757.7078	99.3157
2758.1899	99.3305
2758.6719	99.3447
2759.1541	99.3559
2759.6362	99.3627
2760.1184	99.3637
2760.6003	99.3589
2761.0825	99.3499
2761.5647	99.34
2762.0469	99.3337
2762.5288	99.3342
2763.0110	99.3421
2763.4932	99.3548
2763.9753	99.3674
2764.4573	99.3751
2764.9395	99.3753
2765.4216	99.368
2765.9038	99.3557
2766.3857	99.3417
2766.8679	99.3285
2767.3501	99.3178
2767.8323	99.3099
2768.3142	99.3054
2768.7964	99.3047
2769.2786	99.3091
2769.7607	99.3199
2770.2427	99.3375
2770.7249	99.3608
2771.2070	99.3862
2771.6892	99.4081
2772.1711	99.4201
2772.6533	99.4172
2773.1355	99.3987
2773.6177	99.3697
2774.0996	99.3399
2774.5818	99.3203
2775.0640	99.3188
2775.5461	99.3355
2776.0281	99.3628
2776.5103	99.3882
2776.9924	99.4001
2777.4746	99.3936
2777.9565	99.3725
2778.4387	99.3464
2778.9209	99.3256
2779.4031	99.3155
2779.8850	99.3155
2780.3672	99.321
2780.8494	99.3283
2781.3315	99.3373
2781.8135	99.3508
2782.2957	99.3698
2782.7778	99.3905
2783.2600	99.4042
2783.7419	99.4016
2784.2241	99.379
2784.7063	99.3415
2785.1885	99.3014
2785.6704	99.2714
2786.1526	99.2584
2786.6348	99.2602
2787.1169	99.2684
2787.5989	99.2745
2788.0811	99.2747
2788.5632	99.2713
2789.0454	99.2706
2789.5273	99.2776
2790.0095	99.2937
2790.4917	99.3161
2790.9739	99.3402
2791.4558	99.3621
2791.9380	99.3794
2792.4202	99.3911
2792.9023	99.3953
2793.3843	99.3893
2793.8665	99.3706
2794.3486	99.3396
2794.8308	99.3018
2795.3127	99.2674
2795.7949	99.2469
2796.2771	99.2457
2796.7593	99.2605
2797.2412	99.2808
2797.7234	99.294
2798.2056	99.2929
2798.6877	99.2796
2799.1697	99.2637
2799.6519	99.2557
2800.1340	99.26
2800.6162	99.2724
2801.0981	99.2832
2801.5803	99.2838
2802.0625	99.2719
2802.5447	99.2525
2803.0266	99.2336
2803.5088	99.2211
2803.9910	99.216
2804.4731	99.2159
2804.9551	99.2181
2805.4373	99.222
2805.9194	99.229
2806.4016	99.2394
2806.8835	99.2504
2807.3657	99.2557
2807.8479	99.2496
2808.3301	99.2311
2808.8120	99.2065
2809.2942	99.1879
2809.7764	99.1868
2810.2585	99.2082
2810.7405	99.2471
2811.2227	99.2899
2811.7048	99.3205
2812.1870	99.3277
2812.6689	99.3102
2813.1511	99.2761
2813.6333	99.2382
2814.1155	99.2077
2814.5974	99.1893
2815.0796	99.181
2815.5618	99.1764
2816.0439	99.1696
2816.5259	99.1582
2817.0081	99.1442
2817.4902	99.1323
2817.9724	99.127
2818.4543	99.1305
2818.9365	99.1419
2819.4187	99.1579
2819.9009	99.1737
2820.3828	99.1852
2820.8650	99.1891
2821.3472	99.1844
2821.8293	99.1724
2822.3113	99.1561
2822.7935	99.1395
2823.2756	99.1252
2823.7578	99.113
2824.2397	99.0997
2824.7219	99.0812
2825.2041	99.056
2825.6863	99.0274
2826.1682	99.003
2826.6504	98.9916
2827.1326	98.9981
2827.6147	99.0206
2828.0967	99.0516
2828.5789	99.0815
2829.0610	99.103
2829.5432	99.1136
2830.0251	99.1151
2830.5073	99.1112
2830.9895	99.1049
2831.4717	99.0984
2831.9536	99.0934
2832.4358	99.0907
2832.9180	99.0902
2833.4001	99.0901
2833.8821	99.087
2834.3643	99.0773
2834.8464	99.0598
2835.3286	99.0361
2835.8105	99.0103
2836.2927	98.9863
2836.7749	98.9663
2837.2571	98.9506
2837.7390	98.9386
2838.2212	98.9298
2838.7034	98.9244
2839.1855	98.9217
2839.6675	98.9194
2840.1497	98.9134
2840.6318	98.8997
2841.1140	98.877
2841.5959	98.848
2842.0781	98.8178
2842.5603	98.7915
2843.0425	98.7711
2843.5244	98.7545
2844.0066	98.7376
2844.4888	98.7168
2844.9709	98.6918
2845.4529	98.6653
2845.9351	98.6404
2846.4172	98.6179
2846.8994	98.5957
2847.3813	98.5704
2847.8635	98.5405
2848.3457	98.5088
2848.8279	98.4807
2849.3098	98.4616
2849.7920	98.4524
2850.2742	98.4488
2850.7563	98.4435
2851.2383	98.4307
2851.7205	98.4092
2852.2026	98.383
2852.6848	98.3573
2853.1667	98.3357
2853.6489	98.3175
2854.1311	98.2995
2854.6133	98.2791
2855.0952	98.2566
2855.5774	98.2345
2856.0596	98.2148
2856.5417	98.1967
2857.0237	98.1764
2857.5059	98.1498
2857.9880	98.1163
2858.4702	98.0809
2858.9521	98.0525
2859.4343	98.0392
2859.9165	98.044
2860.3987	98.0631
2860.8806	98.0873
2861.3628	98.1064
2861.8450	98.1137
2862.3271	98.108
2862.8091	98.093
2863.2913	98.0747
2863.7734	98.0584
2864.2556	98.0473
2864.7375	98.0417
2865.2197	98.0406
2865.7019	98.0417
2866.1841	98.0425
2866.6660	98.0412
2867.1482	98.0371
2867.6304	98.0314
2868.1125	98.0264
2868.5945	98.0244
2869.0767	98.026
2869.5588	98.0297
2870.0410	98.0335
2870.5229	98.0366
2871.0051	98.0404
2871.4873	98.0471
2871.9695	98.0568
2872.4514	98.0652
2872.9336	98.0647
2873.4158	98.0495
2873.8979	98.0202
2874.3799	97.9868
2874.8621	97.9647
2875.3442	97.9667
2875.8264	97.996
2876.3083	98.0431
2876.7905	98.091
2877.2727	98.1242
2877.7549	98.1367
2878.2368	98.1337
2878.7190	98.1269
2879.2012	98.1262
2879.6833	98.1339
2880.1653	98.1439
2880.6475	98.1475
2881.1296	98.1397
2881.6118	98.1228
2882.0938	98.1058
2882.5759	98.0985
2883.0581	98.1069
2883.5403	98.1291
2884.0222	98.1564
2884.5044	98.177
2884.9866	98.1813
2885.4688	98.1657
2885.9507	98.1347
2886.4329	98.099
2886.9150	98.0709
2887.3972	98.0592
2887.8792	98.0651
2888.3613	98.0817
2888.8435	98.0978
2889.3257	98.1029
2889.8076	98.0922
2890.2898	98.0681
2890.7720	98.0384
2891.2542	98.0127
2891.7361	97.9986
2892.2183	97.9993
2892.7004	98.0126
2893.1826	98.0317
2893.6646	98.0467
2894.1467	98.0482
2894.6289	98.0305
2895.1111	97.9939
2895.5930	97.9445
2896.0752	97.8912
2896.5574	97.8417
2897.0396	97.8002
2897.5215	97.7669
2898.0037	97.7397
2898.4858	97.7166
2898.9680	97.6975
2899.4500	97.6839
2899.9321	97.678
2900.4143	97.6817
2900.8965	97.6951
2901.3784	97.7162
2901.8606	97.7402
2902.3428	97.7606
2902.8250	97.7714
2903.3069	97.7695
2903.7891	97.7561
2904.2712	97.7357
2904.7534	97.7126
2905.2354	97.6878
2905.7175	97.6575
2906.1997	97.6167
2906.6819	97.5635
2907.1638	97.5023
2907.6460	97.4429
2908.1282	97.3947
2908.6104	97.3617
2909.0923	97.3401
2909.5745	97.3212
2910.0566	97.2971
2910.5388	97.265
2911.0208	97.2269
2911.5029	97.1853
2911.9851	97.1403
2912.4673	97.0888
2912.9492	97.0291
2913.4314	96.9649
2913.9136	96.9058
2914.3958	96.8622
2914.8777	96.8382
2915.3599	96.8269
2915.8420	96.8126
2916.3242	96.7793
2916.8062	96.7193
2917.2883	96.6376
2917.7705	96.5485
2918.2527	96.4677
2918.7346	96.4039
2919.2168	96.3563
2919.6990	96.3172
2920.1812	96.2777
2920.6631	96.2329
2921.1453	96.1825
2921.6274	96.1289
2922.1096	96.0746
2922.5916	96.0209
2923.0737	95.9684
2923.5559	95.9193
2924.0381	95.8771
2924.5200	95.8453
2925.0022	95.8257
2925.4844	95.8168
2925.9666	95.8148
2926.4485	95.8152
2926.9307	95.8153
2927.4128	95.8143
2927.8950	95.8132
2928.3770	95.8135
2928.8591	95.8156
2929.3413	95.8189
2929.8235	95.8219
2930.3054	95.8232
2930.7876	95.8224
2931.2698	95.8208
2931.7520	95.8216
2932.2339	95.8287
2932.7161	95.8451
2933.1982	95.8714
2933.6804	95.9046
2934.1624	95.9387
2934.6445	95.9671
2935.1267	95.9855
2935.6089	95.9943
2936.0908	95.9991
2936.5730	96.0082
2937.0552	96.0291
2937.5374	96.0644
2938.0193	96.1112
2938.5015	96.1618
2938.9836	96.2088
2939.4658	96.2483
2939.9478	96.282
2940.4299	96.3147
2940.9121	96.3505
2941.3943	96.3898
2941.8762	96.4293
2942.3584	96.4651
2942.8406	96.4964
2943.3228	96.5276
2943.8047	96.565
2944.2869	96.6124
2944.7690	96.6671
2945.2512	96.7201
2945.7332	96.7603
2946.2153	96.7817
2946.6975	96.7868
2947.1797	96.786
2947.6616	96.7918
2948.1438	96.8119
2948.6260	96.8456
2949.1082	96.8853
2949.5901	96.9207
2950.0723	96.9444
2950.5544	96.9531
2951.0366	96.9473
2951.5186	96.93
2952.0007	96.9056
2952.4829	96.8808
2952.9651	96.8641
2953.4470	96.8619
2953.9292	96.8751
2954.4114	96.8967
2954.8936	96.9146
2955.3755	96.9186
2955.8577	96.9068
2956.3398	96.8864
2956.8220	96.8686
2957.3040	96.8611
2957.7861	96.863
2958.2683	96.8669
2958.7505	96.8652
2959.2324	96.8547
2959.7146	96.8382
2960.1968	96.8193
2960.6790	96.7985
2961.1609	96.7717
2961.6431	96.7347
2962.1252	96.6875
2962.6074	96.6373
2963.0894	96.5943
2963.5715	96.566
2964.0537	96.5514
2964.5359	96.5406
2965.0178	96.5199
2965.5000	96.4786
2965.9822	96.4153
2966.4644	96.338
2966.9463	96.261
2967.4285	96.1981
2967.9106	96.157
2968.3928	96.1367
2968.8748	96.1288
2969.3569	96.1213
2969.8391	96.1037
2970.3213	96.0698
2970.8032	96.0197
2971.2854	95.9579
2971.7676	95.8905
2972.2498	95.823
2972.7317	95.7591
2973.2139	95.7009
2973.6960	95.65
2974.1782	95.6072
2974.6602	95.5728
2975.1423	95.5456
2975.6245	95.5238
2976.1067	95.5056
2976.5886	95.4901
2977.0708	95.4769
2977.5530	95.465
2978.0352	95.4519
2978.5171	95.4349
2978.9993	95.4125
2979.4814	95.3868
2979.9636	95.3635
2980.4456	95.3503
2980.9277	95.3537
2981.4099	95.3772
2981.8921	95.4201
2982.3740	95.4787
2982.8562	95.5462
2983.3384	95.6141
2983.8206	95.6732
2984.3025	95.7171
2984.7847	95.7448
2985.2668	95.7623
2985.7490	95.7797
2986.2310	95.8062
2986.7131	95.8454
2987.1953	95.8951
2987.6775	95.9506
2988.1594	96.0093
2988.6416	96.0728
2989.1238	96.144
2989.6060	96.2228
2990.0879	96.3037
2990.5701	96.3783
2991.0522	96.4396
2991.5344	96.4863
2992.0164	96.5226
2992.4985	96.5547
2992.9807	96.5866
2993.4629	96.6189
2993.9448	96.65
2994.4270	96.6786
2994.9092	96.7046
2995.3914	96.7291
2995.8733	96.7529
2996.3555	96.7768
2996.8376	96.802
2997.3198	96.831
2997.8018	96.8663
2998.2839	96.9092
2998.7661	96.9585
2999.2483	97.011
2999.7302	97.0623
3000.2124	97.1085
3000.6946	97.1465
3001.1768	97.1748
3001.6587	97.1936
3002.1409	97.2057
3002.6230	97.2162
3003.1052	97.2313
3003.5872	97.2558
3004.0693	97.2909
3004.5515	97.335
3005.0337	97.3856
3005.5156	97.4414
3005.9978	97.503
3006.4800	97.5708
3006.9622	97.6435
3007.4441	97.7172
3007.9263	97.7875
3008.4084	97.8514
3008.8906	97.9091
3009.3726	97.9624
3009.8547	98.0128
3010.3369	98.0603
3010.8191	98.1033
3011.3010	98.1413
3011.7832	98.176
3012.2654	98.2114
3012.7476	98.2516
3013.2295	98.2984
3013.7117	98.3505
3014.1938	98.4031
3014.6760	98.4506
3015.1580	98.4879
3015.6401	98.5127
3016.1223	98.5262
3016.6045	98.5325
3017.0864	98.5377
3017.5686	98.5475
3018.0508	98.5659
3018.5330	98.5943
3019.0149	98.6314
3019.4971	98.6743
3019.9792	98.7192
3020.4614	98.7624
3020.9434	98.7999
3021.4255	98.8281
3021.9077	98.8434
3022.3899	98.844
3022.8718	98.8309
3023.3540	98.8093
3023.8362	98.7881
3024.3184	98.7771
3024.8003	98.7825
3025.2825	98.8031
3025.7646	98.8303
3026.2468	98.8522
3026.7288	98.8606
3027.2109	98.8551
3027.6931	98.843
3028.1753	98.8337
3028.6572	98.8332
3029.1394	98.8413
3029.6216	98.8534
3030.1038	98.8643
3030.5857	98.8717
3031.0679	98.8759
3031.5500	98.8779
3032.0322	98.8779
3032.5142	98.8765
3032.9963	98.8754
3033.4785	98.878
3033.9607	98.8869
3034.4426	98.9021
3034.9248	98.9202
3035.4070	98.9366
3035.8892	98.9481
3036.3711	98.9537
3036.8533	98.9534
3037.3354	98.9465
3037.8176	98.9326
3038.2996	98.9133
3038.7817	98.8943
3039.2639	98.8838
3039.7461	98.8874
3040.2280	98.9049
3040.7102	98.9297
3041.1924	98.9529
3041.6746	98.9685
3042.1565	98.9753
3042.6387	98.9758
3043.1208	98.973
3043.6030	98.9688
3044.0850	98.9646
3044.5671	98.9627
3045.0493	98.9659
3045.5315	98.9757
3046.0134	98.9901
3046.4956	99.0045
3046.9778	99.0135
3047.4600	99.014
3047.9419	99.0053
3048.4241	98.9881
3048.9063	98.9633
3049.3884	98.933
3049.8704	98.9015
3050.3525	98.8765
3050.8347	98.8658
3051.3169	98.8739
3051.7988	98.8983
3052.2810	98.9305
3052.7632	98.9601
3053.2454	98.9795
3053.7273	98.9863
3054.2095	98.9824
3054.6917	98.9711
3055.1738	98.9551
3055.6558	98.9364
3056.1379	98.9169
3056.6201	98.8992
3057.1023	98.8856
3057.5842	98.8776
3058.0664	98.875
3058.5486	98.8767
3059.0308	98.8803
3059.5127	98.883
3059.9949	98.882
3060.4771	98.8763
3060.9592	98.8683
3061.4412	98.8643
3061.9233	98.8723
3062.4055	98.8966
3062.8877	98.9342
3063.3696	98.9735
3063.8518	98.9997
3064.3340	99.0017
3064.8162	98.9789
3065.2981	98.9408
3065.7803	98.9013
3066.2625	98.8708
3066.7446	98.852
3067.2266	98.8409
3067.7087	98.8319
3068.1909	98.8225
3068.6731	98.8149
3069.1550	98.8136
3069.6372	98.8222
3070.1194	98.8407
3070.6016	98.8647
3071.0835	98.8875
3071.5657	98.9021
3072.0479	98.9045
3072.5300	98.8956
3073.0120	98.8815
3073.4941	98.8711
3073.9763	98.8714
3074.4585	98.882
3074.9404	98.8954
3075.4226	98.8998
3075.9048	98.8876
3076.3870	98.8602
3076.8689	98.8279
3077.3511	98.8037
3077.8333	98.7953
3078.3154	98.8017
3078.7974	98.8155
3079.2795	98.8288
3079.7617	98.8384
3080.2439	98.8458
3080.7258	98.8537
3081.2080	98.8625
3081.6902	98.8704
3082.1724	98.8757
3082.6543	98.8788
3083.1365	98.8828
3083.6187	98.8908
3084.1008	98.9036
3084.5828	98.9187
3085.0649	98.9322
3085.5471	98.9408
3086.0293	98.9427
3086.5112	98.9372
3086.9934	98.9246
3087.4756	98.9048
3087.9578	98.8789
3088.4397	98.849
3088.9219	98.8193
3089.4041	98.7949
3089.8862	98.7813
3090.3682	98.7815
3090.8503	98.7954
3091.3325	98.8176
3091.8147	98.8391
3092.2966	98.8496
3092.7788	98.842
3093.2610	98.8159
3093.7432	98.7789
3094.2251	98.7443
3094.7073	98.7264
3095.1895	98.7349
3095.6716	98.7708
3096.1536	98.8254
3096.6357	98.8831
3097.1179	98.9262
3097.6001	98.9413
3098.0820	98.9234
3098.5642	98.8781
3099.0464	98.8194
3099.5286	98.7645
3100.0105	98.7272
3100.4927	98.7129
3100.9749	98.7173
3101.4570	98.7297
3101.9390	98.7385
3102.4211	98.7371
3102.9033	98.726
3103.3855	98.7125
3103.8674	98.706
3104.3496	98.7131
3104.8318	98.7338
3105.3140	98.7609
3105.7959	98.7842
3106.2781	98.796
3106.7603	98.7959
3107.2424	98.7903
3107.7244	98.7873
3108.2065	98.7898
3108.6887	98.7934
3109.1709	98.7898
3109.6528	98.7737
3110.1350	98.7483
3110.6172	98.7245
3111.0994	98.7137
3111.5813	98.7208
3112.0635	98.7407
3112.5457	98.763
3113.0278	98.7793
3113.5098	98.7887
3113.9919	98.7958
3114.4741	98.8059
3114.9563	98.8183
3115.4382	98.8264
3115.9204	98.8227
3116.4026	98.8053
3116.8848	98.7808
3117.3667	98.7611
3117.8489	98.7563
3118.3311	98.769
3118.8132	98.7928
3119.2952	98.8163
3119.7773	98.8286
3120.2595	98.8234
3120.7417	98.7998
3121.2236	98.7609
3121.7058	98.7135
3122.1880	98.6669
3122.6702	98.6319
3123.1521	98.6165
3123.6343	98.6217
3124.1165	98.6396
3124.5986	98.6563
3125.0806	98.6591
3125.5627	98.6439
3126.0449	98.6179
3126.5271	98.5952
3127.0090	98.5877
3127.4912	98.5972
3127.9734	98.615
3128.4556	98.6283
3128.9375	98.6286
3129.4197	98.6151
3129.9019	98.5935
3130.3840	98.57
3130.8660	98.5473
3131.3481	98.5254
3131.8303	98.5043
3132.3125	98.4869
3132.7944	98.4778
3133.2766	98.4797
3133.7588	98.4914
3134.2410	98.5078
3134.7229	98.5234
3135.2051	98.5342
3135.6873	98.5385
3136.1694	98.5348
3136.6514	98.5211
3137.1335	98.4963
3137.6157	98.4626
3138.0979	98.4271
3138.5798	98.3995
3139.0620	98.3887
3139.5442	98.3985
3140.0264	98.4261
3140.5083	98.4646
3140.9905	98.5058
3141.4727	98.5423
3141.9548	98.5684
3142.4368	98.5793
3142.9189	98.5715
3143.4011	98.5448
3143.8833	98.5034
3144.3652	98.4564
3144.8474	98.4151
3145.3296	98.3882
3145.8118	98.3787
3146.2937	98.3827
3146.7759	98.3923
3147.2581	98.3989
3147.7402	98.3971
3148.2222	98.3856
3148.7043	98.3667
3149.1865	98.3451
3149.6687	98.3268
3150.1506	98.3176
3150.6328	98.3216
3151.1150	98.3383
3151.5972	98.361
3152.0791	98.3785
3152.5613	98.3788
3153.0435	98.3554
3153.5256	98.3112
3154.0076	98.259
3154.4897	98.2166
3154.9719	98.1998
3155.4541	98.2156
3155.9360	98.2594
3156.4182	98.3167
3156.9004	98.3686
3157.3826	98.3996
3157.8645	98.4022
3158.3467	98.3793
3158.8289	98.3407
3159.3110	98.2986
3159.7930	98.2626
3160.2751	98.2375
3160.7573	98.2242
3161.2395	98.2216
3161.7214	98.2281
3162.2036	98.2413
3162.6858	98.2571
3163.1680	98.2702
3163.6499	98.2748
3164.1321	98.268
3164.6143	98.2513
3165.0964	98.2297
3165.5784	98.2097
3166.0605	98.1954
3166.5427	98.1872
3167.0249	98.1822
3167.5068	98.1763
3167.9890	98.1672
3168.4712	98.1558
3168.9534	98.1453
3169.4353	98.1393
3169.9175	98.14
3170.3997	98.1475
3170.8818	98.1601
3171.3638	98.1751
3171.8459	98.1903
3172.3281	98.2044
3172.8103	98.2178
3173.2922	98.2317
3173.7744	98.2468
3174.2566	98.2621
3174.7388	98.2731
3175.2207	98.2731
3175.7029	98.2562
3176.1851	98.2216
3176.6672	98.1759
3177.1492	98.131
3177.6313	98.099
3178.1135	98.0849
3178.5957	98.085
3179.0776	98.0897
3179.5598	98.0911
3180.0420	98.0884
3180.5242	98.087
3181.0061	98.0932
3181.4883	98.1085
3181.9705	98.1274
3182.4526	98.1407
3182.9346	98.1428
3183.4167	98.1352
3183.8989	98.1264
3184.3811	98.1259
3184.8630	98.1383
3185.3452	98.1604
3185.8274	98.1832
3186.3096	98.1972
3186.7915	98.1978
3187.2737	98.1871
3187.7559	98.1722
3188.2380	98.1613
3188.7200	98.1597
3189.2021	98.1677
3189.6843	98.1807
3190.1665	98.1922
3190.6484	98.1975
3191.1306	98.1963
3191.6128	98.193
3192.0950	98.1932
3192.5769	98.1993
3193.0591	98.2075
3193.5413	98.2091
3194.0234	98.1953
3194.5054	98.164
3194.9875	98.1224
3195.4697	98.0841
3195.9519	98.0627
3196.4338	98.0643
3196.9160	98.0847
3197.3982	98.1133
3197.8804	98.14
3198.3623	98.1609
3198.8445	98.1787
3199.3267	98.1984
3199.8088	98.2213
3200.2908	98.2424
3200.7729	98.2526
3201.2551	98.2443
3201.7373	98.2168
3202.2192	98.1783
3202.7014	98.1428
3203.1836	98.1243
3203.6658	98.1298
3204.1477	98.1571
3204.6299	98.1949
3205.1121	98.2287
3205.5942	98.2466
3206.0762	98.2438
3206.5583	98.2233
3207.0405	98.1935
3207.5227	98.1645
3208.0046	98.1448
3208.4868	98.1394
3208.9690	98.1479
3209.4512	98.1645
3209.9331	98.1794
3210.4153	98.1834
3210.8975	98.1737
3211.3796	98.1565
3211.8616	98.1447
3212.3438	98.1504
3212.8259	98.1775
3213.3081	98.2178
3213.7900	98.2553
3214.2722	98.2755
3214.7544	98.2741
3215.2366	98.2576
3215.7185	98.2382
3216.2007	98.2261
3216.6829	98.2253
3217.1650	98.2352
3217.6470	98.2535
3218.1292	98.278
3218.6113	98.3054
3219.0935	98.3283
3219.5754	98.336
3220.0576	98.3195
3220.5398	98.2786
3221.0220	98.2253
3221.5039	98.1805
3221.9861	98.1646
3222.4683	98.1867
3222.9504	98.2395
3223.4324	98.3023
3223.9146	98.3522
3224.3967	98.3759
3224.8789	98.3757
3225.3608	98.3658
3225.8430	98.3619
3226.3252	98.3711
3226.8074	98.388
3227.2893	98.4002
3227.7715	98.3975
3228.2537	98.3793
3228.7358	98.3542
3229.2178	98.334
3229.7000	98.3262
3230.1821	98.3302
3230.6643	98.3395
3231.1462	98.3465
3231.6284	98.346
3232.1106	98.3371
3232.5928	98.3219
3233.0747	98.3042
3233.5569	98.2887
3234.0391	98.2802
3234.5212	98.2819
3235.0032	98.2943
3235.4854	98.3138
3235.9675	98.3338
3236.4497	98.3477
3236.9316	98.3515
3237.4138	98.346
3237.8960	98.3362
3238.3782	98.3291
3238.8601	98.3302
3239.3423	98.3409
3239.8245	98.3577
3240.3066	98.374
3240.7886	98.3829
3241.2708	98.3814
3241.7529	98.3712
3242.2351	98.3582
3242.7170	98.3483
3243.1992	98.3456
3243.6814	98.3502
3244.1636	98.3595
3244.6455	98.3694
3245.1277	98.375
3245.6099	98.3723
3246.0920	98.3596
3246.5740	98.3394
3247.0562	98.3191
3247.5383	98.3085
3248.0205	98.3149
3248.5024	98.3378
3248.9846	98.3685
3249.4668	98.3941
3249.9490	98.4059
3250.4309	98.4042
3250.9131	98.3971
3251.3953	98.3942
3251.8774	98.3999
3252.3594	98.4106
3252.8416	98.4181
3253.3237	98.415
3253.8059	98.3988
3254.2878	98.3725
3254.7700	98.3419
3255.2522	98.3134
3255.7344	98.2926
3256.2163	98.2832
3256.6985	98.2869
3257.1807	98.3021
3257.6628	98.3251
3258.1448	98.3523
3258.6270	98.383
3259.1091	98.4192
3259.5913	98.462
3260.0732	98.5082
3260.5554	98.5493
3261.0376	98.5759
3261.5198	98.5833
3262.0017	98.5761
3262.4839	98.5647
3262.9661	98.5587
3263.4482	98.5607
3263.9302	98.5651
3264.4124	98.5636
3264.8945	98.5518
3265.3767	98.5326
3265.8586	98.5129
3266.3408	98.4983
3266.8230	98.4884
3267.3052	98.4789
3267.7871	98.4665
3268.2693	98.4531
3268.7515	98.4463
3269.2336	98.4543
3269.7156	98.48
3270.1978	98.5192
3270.6799	98.5623
3271.1621	98.5997
3271.6440	98.6253
3272.1262	98.6375
3272.6084	98.6373
3273.0906	98.6268
3273.5725	98.6093
3274.0547	98.59
3274.5369	98.5751
3275.0190	98.5692
3275.5010	98.5721
3275.9832	98.5784
3276.4653	98.5804
3276.9475	98.5742
3277.4294	98.5632
3277.9116	98.5565
3278.3938	98.5631
3278.8760	98.5854
3279.3579	98.6172
3279.8401	98.6471
3280.3223	98.6657
3280.8044	98.6705
3281.2864	98.6662
3281.7686	98.6605
3282.2507	98.6583
3282.7329	98.6598
3283.2148	98.6611
3283.6970	98.6577
3284.1792	98.6473
3284.6614	98.6306
3285.1433	98.6105
3285.6255	98.5907
3286.1077	98.575
3286.5898	98.567
3287.0718	98.5696
3287.5540	98.5834
3288.0361	98.6064
3288.5183	98.6334
3289.0002	98.6583
3289.4824	98.6759
3289.9646	98.6842
3290.4468	98.6845
3290.9287	98.68
3291.4109	98.6744
3291.8931	98.6709
3292.3752	98.6721
3292.8572	98.6807
3293.3394	98.6994
3293.8215	98.7288
3294.3037	98.7661
3294.7856	98.8031
3295.2678	98.8284
3295.7500	98.832
3296.2322	98.8103
3296.7141	98.7687
3297.1963	98.7195
3297.6785	98.6748
3298.1606	98.6406
3298.6426	98.6148
3299.1248	98.5914
3299.6069	98.5679
3300.0891	98.5494
3300.5710	98.5466
3301.0532	98.5682
3301.5354	98.6136
3302.0176	98.6705
3302.4995	98.7202
3302.9817	98.7479
3303.4639	98.7502
3303.9460	98.7361
3304.4280	98.7212
3304.9102	98.7186
3305.3923	98.7331
3305.8745	98.7609
3306.3564	98.7945
3306.8386	98.827
3307.3208	98.8544
3307.8030	98.8756
3308.2849	98.8901
3308.7671	98.8983
3309.2493	98.9013
3309.7314	98.9018
3310.2134	98.9022
3310.6956	98.9027
3311.1777	98.8995
3311.6599	98.8867
3312.1418	98.8604
3312.6240	98.8223
3313.1062	98.7809
3313.5884	98.7477
3314.0703	98.7316
3314.5525	98.7351
3315.0347	98.7538
3315.5168	98.7804
3315.9988	98.8089
3316.4810	98.8365
3316.9631	98.8632
3317.4453	98.8888
3317.9272	98.9112
3318.4094	98.9262
3318.8916	98.9298
3319.3738	98.9209
3319.8557	98.9026
3320.3379	98.8812
3320.8201	98.8635
3321.3022	98.8541
3321.7842	98.854
3322.2664	98.8608
3322.7485	98.87
3323.2307	98.8767
3323.7126	98.8777
3324.1948	98.8719
3324.6770	98.8616
3325.1592	98.8511
3325.6411	98.8454
3326.1233	98.8476
3326.6055	98.8565
3327.0876	98.8668
3327.5696	98.8724
3328.0518	98.8706
3328.5339	98.864
3329.0161	98.8594
3329.4980	98.8627
3329.9802	98.8743
3330.4624	98.8894
3330.9446	98.9023
3331.4265	98.9114
3331.9087	98.9205
3332.3909	98.9354
3332.8730	98.9572
3333.3550	98.979
3333.8372	98.9892
3334.3193	98.9795
3334.8015	98.9515
3335.2834	98.9169
3335.7656	98.8908
3336.2478	98.8829
3336.7300	98.8927
3337.2119	98.9115
3337.6941	98.9293
3338.1763	98.9408
3338.6584	98.9478
3339.1404	98.9555
3339.6226	98.9679
3340.1047	98.9851
3340.5869	99.0025
3341.0688	99.0138
3341.5510	99.0144
3342.0332	99.0033
3342.5154	98.9836
3342.9973	98.9609
3343.4795	98.9402
3343.9617	98.9249
3344.4438	98.9162
3344.9258	98.9141
3345.4080	98.9181
3345.8901	98.9269
3346.3723	98.9378
3346.8542	98.9465
3347.3364	98.949
3347.8186	98.9449
3348.3008	98.9388
3348.7827	98.9395
3349.2649	98.9541
3349.7471	98.9835
3350.2292	99.0196
3350.7112	99.0494
3351.1934	99.0617
3351.6755	99.0535
3352.1577	99.0319
3352.6396	99.0093
3353.1218	98.9963
3353.6040	98.9959
3354.0862	99.0035
3354.5681	99.0108
3355.0503	99.0116
3355.5325	99.0046
3356.0146	98.9927
3356.4966	98.9801
3356.9788	98.9689
3357.4609	98.9595
3357.9431	98.9523
3358.4250	98.9487
3358.9072	98.9511
3359.3894	98.9606
3359.8716	98.9744
3360.3535	98.9874
3360.8357	98.9951
3361.3179	98.997
3361.8000	98.9973
3362.2820	99.0025
3362.7642	99.0168
3363.2463	99.0402
3363.7285	99.0688
3364.2104	99.098
3364.6926	99.1236
3365.1748	99.1416
3365.6570	99.1472
3366.1389	99.1349
3366.6211	99.102
3367.1033	99.0521
3367.5854	98.9967
3368.0674	98.951
3368.5496	98.9272
3369.0317	98.9288
3369.5139	98.9499
3369.9958	98.9794
3370.4780	99.0076
3370.9602	99.0291
3371.4424	99.0433
3371.9243	99.0512
3372.4065	99.0533
3372.8887	99.0498
3373.3708	99.0423
3373.8528	99.0339
3374.3350	99.0285
3374.8171	99.0276
3375.2993	99.0289
3375.7813	99.0269
3376.2634	99.0159
3376.7456	98.9945
3377.2278	98.9676
3377.7097	98.9448
3378.1919	98.9366
3378.6741	98.9485
3379.1563	98.9788
3379.6382	99.0187
3380.1204	99.0573
3380.6025	99.0862
3381.0847	99.1032
3381.5667	99.1101
3382.0488	99.109
3382.5310	99.0984
3383.0132	99.0736
3383.4951	99.032
3383.9773	98.9787
3384.4595	98.9282
3384.9417	98.8992
3385.4236	98.9046
3385.9058	98.943
3386.3879	98.998
3386.8701	99.0459
3387.3521	99.0678
3387.8342	99.0586
3388.3164	99.0288
3388.7986	98.9982
3389.2805	98.9852
3389.7627	98.9985
3390.2449	99.0342
3390.7271	99.079
3391.2090	99.1161
3391.6912	99.1318
3392.1733	99.1201
3392.6555	99.0851
3393.1375	99.0401
3393.6196	99.002
3394.1018	98.9849
3394.5840	98.9946
3395.0659	99.027
3395.5481	99.0701
3396.0303	99.1095
3396.5125	99.1352
3396.9944	99.1463
3397.4766	99.1502
3397.9587	99.1564
3398.4409	99.1691
3398.9229	99.1834
3399.4050	99.1881
3399.8872	99.1725
3400.3694	99.1334
3400.8513	99.0787
3401.3335	99.0252
3401.8157	98.9908
3402.2979	98.9868
3402.7798	99.0137
3403.2620	99.0613
3403.7441	99.1143
3404.2263	99.1586
3404.7083	99.1861
3405.1904	99.196
3405.6726	99.193
3406.1548	99.1844
3406.6367	99.1774
3407.1189	99.1774
3407.6011	99.1865
3408.0833	99.2031
3408.5652	99.221
3409.0474	99.2321
3409.5295	99.2286
3410.0117	99.2075
3410.4937	99.1722
3410.9758	99.1317
3411.4580	99.0974
3411.9402	99.0786
3412.4221	99.0796
3412.9043	99.0993
3413.3865	99.1317
3413.8687	99.1688
3414.3506	99.2031
3414.8328	99.2299
3415.3149	99.2489
3415.7971	99.2627
3416.2791	99.2748
3416.7612	99.2866
3417.2434	99.2955
3417.7256	99.2962
3418.2075	99.2842
3418.6897	99.2582
3419.1719	99.2219
3419.6541	99.1831
3420.1360	99.1507
3420.6182	99.1323
3421.1003	99.1321
3421.5825	99.1496
3422.0645	99.1791
3422.5466	99.2106
3423.0288	99.2329
3423.5110	99.2387
3423.9929	99.2294
3424.4751	99.2158
3424.9573	99.2128
3425.4395	99.2307
3425.9214	99.2689
3426.4036	99.3156
3426.8857	99.3549
3427.3679	99.3751
3427.8499	99.3742
3428.3320	99.3579
3428.8142	99.3334
3429.2964	99.3051
3429.7783	99.2738
3430.2605	99.2405
3430.7427	99.2094
3431.2249	99.1872
3431.7068	99.1801
3432.1890	99.1895
3432.6711	99.2106
3433.1533	99.2345
3433.6353	99.2508
3434.1174	99.2513
3434.5996	99.2326
3435.0818	99.1987
3435.5637	99.1607
3436.0459	99.1349
3436.5281	99.1356
3437.0103	99.1672
3437.4922	99.2203
3437.9744	99.2742
3438.4565	99.3075
3438.9387	99.3093
3439.4207	99.2857
3439.9028	99.2561
3440.3850	99.2426
3440.8672	99.2574
3441.3491	99.2974
3441.8313	99.3456
3442.3135	99.3803
3442.7957	99.3878
3443.2776	99.3691
3443.7598	99.3379
3444.2419	99.3115
3444.7241	99.3008
3445.2061	99.3059
3445.6882	99.3174
3446.1704	99.3224
3446.6526	99.3122
3447.1345	99.2883
3447.6167	99.26
3448.0989	99.2372
3448.5811	99.2251
3449.0630	99.2251
3449.5452	99.2376
3450.0273	99.2638
3450.5095	99.3037
3450.9915	99.3517
3451.4736	99.3961
3451.9558	99.4234
3452.4380	99.426
3452.9199	99.4071
3453.4021	99.3799
3453.8843	99.3599
3454.3665	99.3562
3454.8484	99.368
3455.3306	99.3866
3455.8127	99.4019
3456.2949	99.4067
3456.7769	99.398
3457.2590	99.3756
3457.7412	99.3417
3458.2234	99.3026
3458.7053	99.2691
3459.1875	99.2548
3459.6697	99.27
3460.1519	99.3151
3460.6338	99.3781
3461.1160	99.4388
3461.5981	99.4778
3462.0803	99.4857
3462.5623	99.4665
3463.0444	99.4345
3463.5266	99.4058
3464.0088	99.3902
3464.4907	99.3888
3464.9729	99.396
3465.4551	99.4038
3465.9373	99.406
3466.4192	99.4005
3466.9014	99.3889
3467.3835	99.375
3467.8657	99.362
3468.3477	99.352
3468.8298	99.3459
3469.3120	99.3444
3469.7942	99.3483
3470.2761	99.3583
3470.7583	99.3747
3471.2405	99.3971
3471.7227	99.4244
3472.2046	99.4544
3472.6868	99.4823
3473.1689	99.5011
3473.6511	99.5038
3474.1331	99.4871
3474.6152	99.4556
3475.0974	99.4213
3475.5796	99.398
3476.0615	99.3937
3476.5437	99.4056
3477.0259	99.4224
3477.5081	99.4313
3477.9900	99.425
3478.4722	99.405
3478.9543	99.3791
3479.4365	99.3559
3479.9185	99.3408
3480.4006	99.3353
3480.8828	99.3391
3481.3650	99.3515
3481.8469	99.3697
3482.3291	99.3879
3482.8113	99.3984
3483.2935	99.396
3483.7754	99.3826
3484.2576	99.368
3484.7397	99.3651
3485.2219	99.3827
3485.7039	99.4195
3486.1860	99.4632
3486.6682	99.4958
3487.1504	99.5019
3487.6323	99.4769
3488.1145	99.4288
3488.5967	99.3751
3489.0789	99.3336
3489.5608	99.3156
3490.0430	99.323
3490.5251	99.3497
3491.0073	99.3857
3491.4893	99.4207
3491.9714	99.4481
3492.4536	99.4652
3492.9358	99.4723
3493.4177	99.4699
3493.8999	99.4584
3494.3821	99.4393
3494.8643	99.4163
3495.3462	99.3961
3495.8284	99.3866
3496.3105	99.394
3496.7927	99.4205
3497.2747	99.4638
3497.7568	99.5178
3498.2390	99.5735
3498.7212	99.6198
3499.2031	99.6456
3499.6853	99.6434
3500.1675	99.6142
3500.6497	99.5676
3501.1316	99.519
3501.6138	99.4834
3502.0959	99.4698
3502.5781	99.4787
3503.0601	99.504
3503.5422	99.537
3504.0244	99.57
3504.5066	99.5957
3504.9885	99.6075
3505.4707	99.6003
3505.9529	99.5747
3506.4351	99.539
3506.9170	99.5063
3507.3992	99.4871
3507.8813	99.483
3508.3635	99.4842
3508.8455	99.4757
3509.3276	99.4489
3509.8098	99.4101
3510.2920	99.377
3510.7739	99.3663
3511.2561	99.3833
3511.7383	99.4201
3512.2205	99.4616
3512.7024	99.494
3513.1846	99.5119
3513.6667	99.5185
3514.1489	99.5218
3514.6309	99.5278
3515.1130	99.5371
3515.5952	99.5455
3516.0774	99.5476
3516.5593	99.5405
3517.0415	99.5263
3517.5237	99.5113
3518.0059	99.5026
3518.4878	99.5049
3518.9700	99.5181
3519.4521	99.5378
3519.9343	99.5586
3520.4163	99.5765
3520.8984	99.5895
3521.3806	99.5956
3521.8628	99.5916
3522.3447	99.5738
3522.8269	99.5428
3523.3091	99.5069
3523.7913	99.4801
3524.2732	99.4739
3524.7554	99.4907
3525.2375	99.5231
3525.7197	99.5577
3526.2017	99.5827
3526.6838	99.5941
3527.1660	99.5961
3527.6482	99.5968
3528.1301	99.601
3528.6123	99.6066
3529.0945	99.6088
3529.5767	99.6062
3530.0586	99.6039
3530.5408	99.6101
3531.0229	99.6297
3531.5051	99.6582
3531.9871	99.6816
3532.4692	99.6838
3532.9514	99.6561
3533.4336	99.6045
3533.9155	99.5487
3534.3977	99.5148
3534.8799	99.5239
3535.3621	99.5802
3535.8440	99.6643
3536.3262	99.7393
3536.8083	99.7708
3537.2905	99.747
3537.7725	99.683
3538.2546	99.6098
3538.7368	99.5578
3539.2190	99.5434
3539.7009	99.5635
3540.1831	99.5989
3540.6653	99.6274
3541.1475	99.6364
3541.6294	99.6279
3542.1116	99.6147
3542.5938	99.6111
3543.0759	99.6244
3543.5579	99.6508
3544.0400	99.678
3544.5222	99.6918
3545.0044	99.6828
3545.4863	99.6505
3545.9685	99.6027
3546.4507	99.552
3546.9329	99.5121
3547.4148	99.4935
3547.8970	99.5004
3548.3792	99.5299
3548.8613	99.574
3549.3433	99.6222
3549.8254	99.6656
3550.3076	99.6991
3550.7898	99.7226
3551.2717	99.7399
3551.7539	99.7545
3552.2361	99.765
3552.7183	99.7641
3553.2002	99.7434
3553.6824	99.7007
3554.1646	99.6423
3554.6467	99.5808
3555.1287	99.529
3555.6108	99.4945
3556.0930	99.4771
3556.5752	99.4718
3557.0571	99.4741
3557.5393	99.4852
3558.0215	99.5119
3558.5037	99.5601
3558.9856	99.6283
3559.4678	99.7031
3559.9500	99.7637
3560.4321	99.7941
3560.9141	99.7922
3561.3962	99.7699
3561.8784	99.7438
3562.3606	99.7256
3562.8428	99.7171
3563.3247	99.7117
3563.8069	99.7014
3564.2891	99.6828
3564.7712	99.661
3565.2532	99.6473
3565.7354	99.6538
3566.2175	99.6839
3566.6997	99.724
3567.1816	99.75
3567.6638	99.7463
3568.1460	99.7184
3568.6282	99.6838
3569.1101	99.6579
3569.5923	99.6471
3570.0745	99.6492
3570.5566	99.6561
3571.0386	99.658
3571.5208	99.6475
3572.0029	99.622
3572.4851	99.5852
3572.9670	99.5447
3573.4492	99.5096
3573.9314	99.4876
3574.4136	99.4824
3574.8955	99.4924
3575.3777	99.5119
3575.8599	99.5341
3576.3420	99.5541
3576.8240	99.5711
3577.3062	99.5874
3577.7883	99.6067
3578.2705	99.6313
3578.7524	99.6604
3579.2346	99.6906
3579.7168	99.7175
3580.1990	99.7373
3580.6809	99.7487
3581.1631	99.7518
3581.6453	99.7475
3582.1274	99.7377
3582.6094	99.7251
3583.0916	99.714
3583.5737	99.7075
3584.0559	99.7055
3584.5378	99.7042
3585.0200	99.6971
3585.5022	99.6784
3585.9844	99.6469
3586.4663	99.6105
3586.9485	99.5848
3587.4307	99.5834
3587.9128	99.6065
3588.3948	99.6415
3588.8770	99.6733
3589.3591	99.6924
3589.8413	99.6978
3590.3232	99.693
3590.8054	99.684
3591.2876	99.6765
3591.7698	99.6757
3592.2517	99.6843
3592.7339	99.7012
3593.2161	99.7224
3593.6982	99.744
3594.1802	99.7645
3594.6624	99.7848
3595.1445	99.8052
3595.6267	99.8228
3596.1086	99.8319
3596.5908	99.827
3597.0730	99.8057
3597.5552	99.7701
3598.0371	99.7262
3598.5193	99.6824
3599.0015	99.6481
3599.4836	99.6313
3599.9656	99.6368
3600.4478	99.6643
3600.9299	99.7071
3601.4121	99.7523
3601.8940	99.7843
3602.3762	99.79
3602.8584	99.7648
3603.3406	99.7162
3603.8225	99.6616
3604.3047	99.6218
3604.7869	99.6138
3605.2690	99.6447
3605.7510	99.7077
3606.2332	99.7826
3606.7153	99.843
3607.1975	99.8707
3607.6794	99.8648
3608.1616	99.8403
3608.6438	99.8171
3609.1260	99.8079
3609.6079	99.8141
3610.0901	99.8324
3610.5723	99.8617
3611.0544	99.9031
3611.5364	99.9556
3612.0186	100.009
3612.5007	100.043
3612.9829	100.039
3613.4648	99.9955
3613.9470	99.9306
3614.4292	99.8667
3614.9114	99.8183
3615.3933	99.7894
3615.8755	99.7775
3616.3577	99.7789
3616.8398	99.7909
3617.3218	99.8131
3617.8040	99.8463
3618.2861	99.8907
3618.7683	99.9431
3619.2502	99.9956
3619.7324	100.037
3620.2146	100.058
3620.6968	100.051
3621.1787	100.018
3621.6609	99.9625
3622.1431	99.8935
3622.6252	99.8203
3623.1072	99.7521
3623.5894	99.6973
3624.0715	99.6626
3624.5537	99.652
3625.0356	99.6656
3625.5178	99.6974
3626.0000	99.7367
3626.4822	99.7703
3626.9641	99.7867
3627.4463	99.7769
3627.9285	99.7387
3628.4106	99.6873
3628.8926	99.6618
3629.3748	99.6869
3629.8569	99.7427
3630.3391	99.8017
3630.8210	99.8529
3631.3032	99.8956
3631.7854	99.9316
3632.2676	99.962
3632.7495	99.9859
3633.2317	99.9991
3633.7139	99.9946
3634.1960	99.9668
3634.6780	99.9153
3635.1602	99.8454
3635.6423	99.7665
3636.1245	99.6912
3636.6064	99.6346
3637.0886	99.6121
3637.5708	99.6323
3638.0530	99.6902
3638.5349	99.7676
3639.0171	99.8409
3639.4993	99.8914
3639.9814	99.9096
3640.4634	99.8974
3640.9456	99.8663
3641.4277	99.8334
3641.9099	99.8129
3642.3918	99.808
3642.8740	99.8099
3643.3562	99.8064
3643.8384	99.7924
3644.3203	99.7742
3644.8025	99.7662
3645.2847	99.7851
3645.7668	99.8436
3646.2488	99.9408
3646.7310	100.054
3647.2131	100.144
3647.6953	100.19
3648.1772	100.205
3648.6594	100.219
3649.1416	100.25
3649.6238	100.295
3650.1057	100.324
3650.5879	100.308
3651.0701	100.248
3651.5522	100.164
3652.0342	100.075
3652.5164	99.9909
3652.9985	99.9201
3653.4807	99.8702
3653.9626	99.8496
3654.4448	99.8664
3654.9270	99.9234
3655.4092	100.009
3655.8911	100.087
3656.3733	100.121
3656.8555	100.104
3657.3376	100.059
3657.8196	100.007
3658.3018	99.9592
3658.7839	99.9168
3659.2661	99.8792
3659.7480	99.8479
3660.2302	99.8263
3660.7124	99.8163
3661.1946	99.8158
3661.6765	99.8196
3662.1587	99.8227
3662.6409	99.8236
3663.1230	99.8248
3663.6050	99.8302
3664.0872	99.8414
3664.5693	99.8551
3665.0515	99.865
3665.5334	99.8659
3666.0156	99.8572
3666.4978	99.8432
3666.9800	99.8313
3667.4619	99.8293
3667.9441	99.8435
3668.4263	99.8764
3668.9084	99.9251
3669.3904	99.9796
3669.8726	100.023
3670.3547	100.041
3670.8369	100.035
3671.3188	100.02
3671.8010	100.01
3672.2832	100.014
3672.7654	100.036
3673.2473	100.083
3673.7295	100.168
3674.2117	100.299
3674.6938	100.455
3675.1758	100.535
3675.6580	100.466
3676.1401	100.316
3676.6223	100.173
3677.1042	100.062
3677.5864	99.9815
3678.0686	99.9287
3678.5508	99.9035
3679.0327	99.9047
3679.5149	99.9248
3679.9971	99.9513
3680.4792	99.9739
3680.9612	99.99
3681.4434	100.003
3681.9255	100.015
3682.4077	100.028
3682.8896	100.038
3683.3718	100.04
3683.8540	100.03
3684.3362	100.011
3684.8181	99.992
3685.3003	99.9832
3685.7825	99.989
3686.2646	100.008
3686.7466	100.035
3687.2288	100.059
3687.7109	100.069
3688.1931	100.058
3688.6750	100.032
3689.1572	100.001
3689.6394	99.9659
3690.1216	99.9266
3690.6035	99.8882
3691.0857	99.8657
3691.5679	99.8732
3692.0500	99.9091
3692.5320	99.9574
3693.0142	99.9986
3693.4963	100.018
3693.9785	100.009
3694.4604	99.9726
3694.9426	99.9234
3695.4248	99.8793
3695.9070	99.8548
3696.3889	99.8547
3696.8711	99.8742
3697.3533	99.9031
3697.8354	99.9322
3698.3174	99.9574
3698.7996	99.9806
3699.2817	100.007
3699.7639	100.041
3700.2458	100.082
3700.7280	100.12
3701.2102	100.137
3701.6924	100.117
3702.1743	100.066
3702.6565	100.008
3703.1387	99.9585
3703.6208	99.9253
3704.1028	99.9052
3704.5850	99.8927
3705.0671	99.8858
3705.5493	99.8879
3706.0313	99.9061
3706.5134	99.9445
3706.9956	99.9998
3707.4778	100.06
3707.9597	100.105
3708.4419	100.116
3708.9241	100.089
3709.4063	100.05
3709.8882	100.041
3710.3704	100.089
3710.8525	100.193
3711.3347	100.311
3711.8167	100.376
3712.2988	100.348
3712.7810	100.262
3713.2632	100.175
3713.7451	100.118
3714.2273	100.091
3714.7095	100.077
3715.1917	100.054
3715.6736	100.006
3716.1558	99.9352
3716.6379	99.855
3717.1201	99.7868
3717.6021	99.7504
3718.0842	99.7583
3718.5664	99.8078
3719.0486	99.8806
3719.5305	99.9561
3720.0127	100.025
3720.4949	100.09
3720.9771	100.152
3721.4590	100.209
3721.9412	100.243
3722.4233	100.242
3722.9055	100.21
3723.3875	100.166
3723.8696	100.127
3724.3518	100.103
3724.8340	100.092
3725.3159	100.086
3725.7981	100.071
3726.2803	100.036
3726.7625	99.9806
3727.2444	99.9131
3727.7266	99.8455
3728.2087	99.7887
3728.6909	99.7516
3729.1729	99.7418
3729.6550	99.7666
3730.1372	99.8318
3730.6194	99.9376
3731.1013	100.067
3731.5835	100.182
3732.0657	100.245
3732.5479	100.251
3733.0298	100.236
3733.5120	100.241
3733.9941	100.295
3734.4763	100.397
3734.9583	100.501
3735.4404	100.535
3735.9226	100.471
3736.4048	100.352
3736.8867	100.237
3737.3689	100.152
3737.8511	100.099
3738.3333	100.066
3738.8152	100.04
3739.2974	100.013
3739.7795	99.9873
3740.2617	99.9654
3740.7437	99.9499
3741.2258	99.9387
3741.7080	99.9275
3742.1902	99.915
3742.6721	99.9061
3743.1543	99.9144
3743.6365	99.9613
3744.1187	100.05
3744.6006	100.121
3745.0828	100.127
3745.5649	100.098
3746.0471	100.073
3746.5291	100.069
3747.0112	100.091
3747.4934	100.142
3747.9756	100.217
3748.4575	100.301
3748.9397	100.37
3749.4219	100.409
3749.9041	100.428
3750.3860	100.444
3750.8682	100.454
3751.3503	100.431
3751.8325	100.345
3752.3145	100.206
3752.7966	100.069
3753.2788	99.9752
3753.7610	99.9312
3754.2429	99.9259
3754.7251	99.9476
3755.2073	99.9857
3755.6895	100.026
3756.1714	100.054
3756.6536	100.061
3757.1357	100.054
3757.6179	100.051
3758.0999	100.066
3758.5820	100.104
3759.0642	100.154
3759.5464	100.182
3760.0283	100.166
3760.5105	100.111
3760.9927	100.044
3761.4749	99.9896
3761.9568	99.9602
3762.4390	99.9585
3762.9211	99.9786
3763.4033	100.01
3763.8853	100.045
3764.3674	100.078
3764.8496	100.104
3765.3318	100.116
3765.8137	100.107
3766.2959	100.082
3766.7781	100.054
3767.2603	100.038
3767.7422	100.044
3768.2244	100.077
3768.7065	100.128
3769.1887	100.175
3769.6707	100.184
3770.1528	100.14
3770.6350	100.068
3771.1172	99.9997
3771.5991	99.955
3772.0813	99.9396
3772.5635	99.9505
3773.0457	99.9794
3773.5276	100.016
3774.0098	100.051
3774.4919	100.078
3774.9741	100.095
3775.4561	100.1
3775.9382	100.091
3776.4204	100.068
3776.9026	100.035
3777.3845	100.002
3777.8667	99.9816
3778.3489	99.9878
3778.8311	100.022
3779.3130	100.065
3779.7952	100.083
3780.2773	100.059
3780.7595	100.001
3781.2415	99.9329
3781.7236	99.8787
3782.2058	99.8574
3782.6880	99.876
3783.1699	99.925
3783.6521	99.9791
3784.1343	100.007
3784.6165	99.9901
3785.0984	99.9379
3785.5806	99.8818
3786.0627	99.8541
3786.5449	99.871
3787.0269	99.9275
3787.5090	100.002
3787.9912	100.067
3788.4734	100.1
3788.9553	100.094
3789.4375	100.059
3789.9197	100.018
3790.4019	99.9902
3790.8838	99.9856
3791.3660	99.9989
3791.8481	100.016
3792.3303	100.023
3792.8123	100.016
3793.2944	100
3793.7766	99.9877
3794.2588	99.989
3794.7407	100.008
3795.2229	100.041
3795.7051	100.076
3796.1873	100.096
3796.6692	100.09
3797.1514	100.064
3797.6335	100.03
3798.1157	100.001
3798.5977	99.9844
3799.0798	99.99
3799.5620	100.029
3800.0442	100.113
3800.5261	100.237
3801.0083	100.353
3801.4905	100.384
3801.9727	100.312
3802.4546	100.197
3802.9368	100.099
3803.4189	100.04
3803.9011	100.022
3804.3831	100.036
3804.8652	100.072
3805.3474	100.118
3805.8296	100.155
3806.3115	100.161
3806.7937	100.125
3807.2759	100.067
3807.7581	100.019
3808.2400	99.9988
3808.7222	100.007
3809.2043	100.037
3809.6865	100.078
3810.1685	100.115
3810.6506	100.136
3811.1328	100.132
3811.6150	100.108
3812.0969	100.072
3812.5791	100.037
3813.0613	100.01
3813.5435	99.9937
3814.0254	99.9867
3814.5076	99.9914
3814.9897	100.015
3815.4719	100.063
3815.9539	100.125
3816.4360	100.171
3816.9182	100.185
3817.4004	100.171
3817.8823	100.143
3818.3645	100.115
3818.8467	100.105
3819.3289	100.132
3819.8108	100.218
3820.2930	100.352
3820.7751	100.469
3821.2573	100.481
3821.7393	100.393
3822.2214	100.271
3822.7036	100.164
3823.1858	100.091
3823.6677	100.052
3824.1499	100.042
3824.6321	100.05
3825.1143	100.064
3825.5962	100.068
3826.0784	100.051
3826.5605	100.011
3827.0427	99.9608
3827.5247	99.9175
3828.0068	99.8929
3828.4890	99.8885
3828.9712	99.9004
3829.4531	99.9242
3829.9353	99.9568
3830.4175	99.9943
3830.8997	100.027
3831.3816	100.041
3831.8638	100.028
3832.3459	99.9973
3832.8281	99.9617
3833.3101	99.9352
3833.7922	99.9267
3834.2744	99.9371
3834.7566	99.956
3835.2385	99.9671
3835.7207	99.9615
3836.2029	99.9433
3836.6851	99.9268
3837.1670	99.9305
3837.6492	99.9661
3838.1313	100.026
3838.6135	100.091
3839.0955	100.147
3839.5776	100.192
3840.0598	100.224
3840.5420	100.242
3841.0239	100.243
3841.5061	100.228
3841.9883	100.2
3842.4705	100.162
3842.9524	100.116
3843.4346	100.069
3843.9167	100.03
3844.3989	100.007
3844.8809	100.001
3845.3630	100.004
3845.8452	100.01
3846.3274	100.012
3846.8093	100.01
3847.2915	100.002
3847.7737	99.9933
3848.2559	99.9855
3848.7378	99.9815
3849.2200	99.9834
3849.7021	99.9942
3850.1843	100.017
3850.6663	100.055
3851.1484	100.107
3851.6306	100.168
3852.1128	100.232
3852.5947	100.284
3853.0769	100.312
3853.5591	100.313
3854.0413	100.302
3854.5232	100.291
3855.0054	100.28
3855.4875	100.266
3855.9697	100.245
3856.4517	100.215
3856.9338	100.179
3857.4160	100.142
3857.8982	100.111
3858.3801	100.088
3858.8623	100.069
3859.3445	100.051
3859.8267	100.034
3860.3086	100.019
3860.7908	100.016
3861.2729	100.029
3861.7551	100.055
3862.2371	100.087
3862.7192	100.119
3863.2014	100.149
3863.6836	100.183
3864.1655	100.215
3864.6477	100.232
3865.1299	100.216
3865.6121	100.167
3866.0940	100.105
3866.5762	100.048
3867.0583	100.007
3867.5405	99.9928
3868.0225	100.012
3868.5046	100.071
3868.9868	100.159
3869.4690	100.229
3869.9509	100.231
3870.4331	100.169
3870.9153	100.093
3871.3975	100.034
3871.8794	100.005
3872.3616	100.012
3872.8438	100.05
3873.3259	100.107
3873.8079	100.15
3874.2900	100.15
3874.7722	100.108
3875.2544	100.049
3875.7363	99.9953
3876.2185	99.9563
3876.7007	99.9316
3877.1829	99.9172
3877.6648	99.91
3878.1470	99.9116
3878.6292	99.9289
3879.1113	99.9707
3879.5933	100.037
3880.0754	100.107
3880.5576	100.147
3881.0398	100.144
3881.5217	100.111
3882.0039	100.07
3882.4861	100.038
3882.9683	100.025
3883.4502	100.037
3883.9324	100.076
3884.4146	100.138
3884.8967	100.207
3885.3787	100.256
3885.8608	100.264
3886.3430	100.235
3886.8252	100.192
3887.3071	100.15
3887.7893	100.116
3888.2715	100.088
3888.7537	100.067
3889.2356	100.055
3889.7178	100.055
3890.2000	100.068
3890.6821	100.084
3891.1641	100.086
3891.6462	100.061
3892.1284	100.014
3892.6106	99.9587
3893.0925	99.9105
3893.5747	99.8763
3894.0569	99.8593
3894.5391	99.8597
3895.0210	99.8756
3895.5032	99.9031
3895.9854	99.9381
3896.4675	99.9772
3896.9495	100.018
3897.4316	100.057
3897.9138	100.093
3898.3960	100.123
3898.8779	100.148
3899.3601	100.174
3899.8423	100.205
3900.3245	100.24
3900.8064	100.269
3901.2886	100.277
3901.7708	100.248
3902.2529	100.182
3902.7349	100.095
3903.2170	100.016
3903.6992	99.9737
3904.1814	99.9764
3904.6633	100.012
3905.1455	100.052
3905.6277	100.076
3906.1099	100.077
3906.5918	100.065
3907.0740	100.05
3907.5562	100.041
3908.0383	100.039
3908.5203	100.043
3909.0024	100.049
3909.4846	100.053
3909.9668	100.055
3910.4487	100.053
3910.9309	100.047
3911.4131	100.038
3911.8953	100.029
3912.3772	100.02
3912.8594	100.01
3913.3416	99.9977
3913.8237	99.9803
3914.3057	99.958
3914.7878	99.9351
3915.2700	99.9193
3915.7522	99.9195
3916.2341	99.9398
3916.7163	99.9736
3917.1985	100.005
3917.6807	100.021
3918.1626	100.017
3918.6448	99.999
3919.1270	99.9743
3919.6091	99.9528
3920.0911	99.9429
3920.5732	99.9476
3921.0554	99.9635
3921.5376	99.9847
3922.0195	100.006
3922.5017	100.026
3922.9839	100.043
3923.4661	100.059
3923.9480	100.075
3924.4302	100.087
3924.9124	100.089
3925.3945	100.078
3925.8765	100.055
3926.3586	100.027
3926.8408	100.003
3927.3230	99.9907
3927.8049	99.9928
3928.2871	100.005
3928.7693	100.015
3929.2515	100.013
3929.7334	99.9959
3930.2156	99.972
3930.6978	99.9584
3931.1799	99.9694
3931.6619	100.006
3932.1440	100.049
3932.6262	100.073
3933.1084	100.06
3933.5903	100.013
3934.0725	99.9497
3934.5547	99.8929
3935.0369	99.8588
3935.5188	99.853
3936.0010	99.8706
3936.4832	99.9007
3936.9653	99.932
3937.4473	99.9571
3937.9294	99.9719
3938.4116	99.9749
3938.8938	99.9669
3939.3757	99.9519
3939.8579	99.9368
3940.3401	99.9301
3940.8223	99.9394
3941.3042	99.9672
3941.7864	100.008
3942.2686	100.049
3942.7507	100.073
3943.2327	100.074
3943.7148	100.056
3944.1970	100.031
3944.6792	100.009
3945.1611	99.9909
3945.6433	99.9774
3946.1255	99.9655
3946.6077	99.9532
3947.0896	99.941
3947.5718	99.9315
3948.0540	99.9277
3948.5361	99.9314
3949.0181	99.943
3949.5002	99.961
3949.9824	99.9816
3950.4646	99.9988
3950.9465	100.007
3951.4287	100.004
3951.9109	99.991
3952.3931	99.9761
3952.8750	99.968
3953.3572	99.9717
3953.8394	99.9834
3954.3215	99.9922
3954.8035	99.9872
3955.2856	99.9657
3955.7678	99.9369
3956.2500	99.9172
3956.7319	99.9206
3957.2141	99.948
3957.6963	99.9864
3958.1785	100.017
3958.6604	100.025
3959.1426	100.012
3959.6248	99.9892
3960.1069	99.9715
3960.5889	99.9685
3961.0710	99.9791
3961.5532	99.9926
3962.0354	99.9964
3962.5173	99.9848
3962.9995	99.9623
3963.4817	99.9411
3963.9639	99.9342
3964.4458	99.9495
3964.9280	99.9852
3965.4102	100.03
3965.8923	100.067
3966.3743	100.081
3966.8564	100.067
3967.3386	100.031
3967.8208	99.9853
3968.3027	99.9478
3968.7849	99.9302
3969.2671	99.9346
3969.7493	99.9537
3970.2312	99.9758
3970.7134	99.9913
3971.1956	99.9966
3971.6777	99.9944
3972.1597	99.9916
3972.6418	99.9945
3973.1240	100.005
3973.6062	100.019
3974.0881	100.027
3974.5703	100.018
3975.0525	99.9894
3975.5347	99.9455
3976.0166	99.9002
3976.4988	99.8695
3976.9810	99.8643
3977.4631	99.8852
3977.9451	99.9237
3978.4272	99.9658
3978.9094	99.9979
3979.3916	100.011
3979.8735	100.004
3980.3557	99.9815
3980.8379	99.9548
3981.3201	99.9355
3981.8020	99.9319
3982.2842	99.9445
3982.7664	99.965
3983.2485	99.9796
3983.7305	99.9766
3984.2126	99.9537
3984.6948	99.9197
3985.1770	99.8905
3985.6589	99.8797
3986.1411	99.8909
3986.6233	99.9165
3987.1055	99.9435
3987.5874	99.9619
3988.0696	99.9697
3988.5518	99.9721
3989.0339	99.9759
3989.5159	99.9855
3989.9980	100
3990.4802	100.017
3990.9624	100.032
3991.4443	100.043
3991.9265	100.046
3992.4087	100.04
3992.8909	100.027
3993.3728	100.009
3993.8550	99.9939
3994.3372	99.9889
3994.8193	99.9963
3995.3013	100.011
3995.7834	100.02
3996.2656	100.014
3996.7478	99.987
3997.2297	99.9439
3997.7119	99.8981
3998.1941	99.8651
3998.6763	99.8557
3999.1582	99.8706
3999.6404	99.9007
4000.1226	99.9319
4000.6047	99.9524
4001.0867	99.9581
4001.5688	99.9527
4002.0510	99.9444
4002.5332	99.9395
4003.0151	99.939
4003.4973	99.9399
4003.9795	99.9385
4004.4617	99.9351
4004.9436	99.9334
4005.4258	99.938
4005.9080	99.9499
4006.3901	99.9656
4006.8721	99.9785
4007.3542	99.9831
4007.8364	99.9778
4008.3186	99.9647
4008.8005	99.948
4009.2827	99.9305
4009.7649	99.9139
4010.2471	99.8992
4010.7290	99.8883
4011.2112	99.8836
4011.6934	99.8867
4012.1755	99.8966
4012.6575	99.9095
4013.1396	99.9198
4013.6218	99.9233
4014.1040	99.919
4014.5859	99.9104
4015.0681	99.9051
4015.5503	99.9121
4016.0325	99.9373
4016.5144	99.9794
4016.9966	100.028
4017.4788	100.068
4017.9609	100.081
4018.4429	100.062
4018.9250	100.014
4019.4072	99.9557
4019.8894	99.9057
4020.3713	99.8795
4020.8535	99.8819
4021.3357	99.9083
4021.8179	99.9493
4022.2998	99.995
4022.7820	100.037
4023.2642	100.068
4023.7463	100.08
4024.2283	100.071
4024.7104	100.039
4025.1926	99.9922
4025.6748	99.9422
4026.1567	99.8997
4026.6389	99.8705
4027.1211	99.8546
4027.6033	99.8494
4028.0852	99.8539
4028.5674	99.8694
4029.0496	99.8977
4029.5317	99.9375
4030.0137	99.9817
4030.4958	100.02
4030.9780	100.042
4031.4602	100.043
4031.9421	100.024
4032.4243	99.9935
4032.9065	99.96
4033.3887	99.931
4033.8706	99.911
4034.3528	99.9007
4034.8350	99.899
4035.3171	99.904
4035.7991	99.9147
4036.2813	99.9302
4036.7634	99.9478
4037.2456	99.9618
4037.7275	99.9639
4038.2097	99.9473
4038.6919	99.9119
4039.1741	99.8673
4039.6560	99.8302
4040.1382	99.8157
4040.6204	99.8292
4041.1025	99.8623
4041.5845	99.8976
4042.0667	99.9189
4042.5488	99.9199
4043.0310	99.9057
4043.5129	99.8879
4043.9951	99.8764
4044.4773	99.8741
4044.9595	99.8788
4045.4414	99.888
4045.9236	99.9032
4046.4058	99.9287
4046.8879	99.9662
4047.3699	100.011
4047.8521	100.052
4048.3342	100.078
4048.8164	100.083
4049.2983	100.07
4049.7805	100.051
4050.2627	100.036
4050.7449	100.03
4051.2268	100.031
4051.7090	100.033
4052.1912	100.03
4052.6733	100.019
4053.1553	100
4053.6375	99.977
4054.1196	99.9515
4054.6018	99.9268
4055.0837	99.908
4055.5659	99.902
4056.0481	99.9141
4056.5303	99.9439
4057.0122	99.9827
4057.4944	100.017
4057.9766	100.034
4058.4587	100.031
4058.9407	100.016
4059.4229	99.9992
4059.9050	99.9909
4060.3872	99.9914
4060.8691	99.9944
4061.3513	99.9928
4061.8335	99.9853
4062.3157	99.9773
4062.7976	99.9759
4063.2798	99.9844
4063.7620	99.9999
4064.2441	100.017
4064.7261	100.03
4065.2083	100.039
4065.6904	100.044
4066.1726	100.044
4066.6545	100.036
4067.1367	100.015
4067.6189	99.9825
4068.1011	99.9433
4068.5830	99.9067
4069.0652	99.8791
4069.5474	99.8608
4070.0295	99.8462
4070.5115	99.8294
4070.9937	99.8088
4071.4758	99.7897
4071.9580	99.7815
4072.4399	99.7918
4072.9221	99.8214
4073.4043	99.8621
4073.8865	99.9005
4074.3684	99.9233
4074.8506	99.9245
4075.3328	99.9087
4075.8149	99.8886
4076.2969	99.8788
4076.7791	99.888
4077.2612	99.9149
4077.7434	99.9493
4078.2253	99.9774
4078.7075	99.9886
4079.1897	99.9794
4079.6719	99.9525
4080.1538	99.9147
4080.6360	99.8738
4081.1182	99.8375
4081.6003	99.8136
4082.0823	99.8083
4082.5645	99.8241
4083.0466	99.8575
4083.5288	99.899
4084.0107	99.9371
4084.4929	99.9625
4084.9751	99.972
4085.4573	99.9684
4085.9392	99.9576
4086.4214	99.9445
4086.9036	99.9313
4087.3857	99.9175
4087.8677	99.9028
4088.3499	99.8891
4088.8320	99.8803
4089.3142	99.8811
4089.7961	99.8934
4090.2783	99.9151
4090.7605	99.9396
4091.2427	99.9595
4091.7246	99.9695
4092.2068	99.9695
4092.6890	99.9639
4093.1711	99.9583
4093.6531	99.9561
4094.1353	99.957
4094.6174	99.9587
4095.0996	99.96
4095.5815	99.9626
4096.0640	99.9694
4096.5459	99.9811
4097.0278	99.9936
4097.5103	99.9991
4097.9922	99.9913
4098.4741	99.9705
4098.9565	99.9457
4099.4385	99.9309
4099.9209	99.9376
4100.4028	99.9678
4100.8848	100.012
4101.3672	100.054
4101.8491	100.079
4102.3311	100.084
4102.8135	100.075
4103.2954	100.063
4103.7778	100.058
4104.2598	100.059
4104.7417	100.056
4105.2241	100.04
4105.7061	100.008
4106.1880	99.9678
4106.6704	99.9341
4107.1523	99.9164
4107.6348	99.9141
4108.1167	99.9173
4108.5986	99.9151
4109.0811	99.9037
4109.5630	99.8889
4110.0449	99.8812
4110.5273	99.888
4111.0093	99.9079
4111.4917	99.9326
4111.9736	99.9528
4112.4556	99.9641
4112.9380	99.9679
4113.4199	99.9693
4113.9019	99.9731
4114.3843	99.9818
4114.8662	99.9961
4115.3486	100.015
4115.8306	100.036
4116.3125	100.053
4116.7949	100.062
4117.2769	100.059
4117.7588	100.044
4118.2412	100.026
4118.7231	100.014
4119.2056	100.016
4119.6875	100.035
4120.1694	100.062
4120.6519	100.085
4121.1338	100.09
4121.6157	100.072
4122.0981	100.034
4122.5801	99.9885
4123.0625	99.9508
4123.5444	99.9316
4124.0264	99.9323
4124.5088	99.9449
4124.9907	99.958
4125.4727	99.9631
4125.9551	99.9588
4126.4370	99.9489
4126.9194	99.9383
4127.4014	99.9286
4127.8833	99.9187
4128.3657	99.9078
4128.8477	99.8989
4129.3296	99.8978
4129.8120	99.9086
4130.2939	99.9296
4130.7764	99.9524
4131.2583	99.9667
4131.7402	99.9658
4132.2227	99.9512
4132.7046	99.9305
4133.1865	99.9126
4133.6689	99.9016
4134.1509	99.896
4134.6333	99.8909
4135.1152	99.8831
4135.5972	99.8733
4136.0796	99.8654
4136.5615	99.8632
4137.0435	99.8677
4137.5259	99.8771
4138.0078	99.8885
4138.4902	99.899
4138.9722	99.906
4139.4541	99.9058
4139.9365	99.8937
4140.4185	99.8672
4140.9004	99.8299
4141.3828	99.7932
4141.8647	99.7718
4142.3472	99.7752
4142.8291	99.8013
4143.3110	99.8358
4143.7935	99.8607
4144.2754	99.8656
4144.7573	99.8539
4145.2397	99.8399
4145.7217	99.8385
4146.2041	99.8554
4146.6860	99.8847
4147.1680	99.9135
4147.6504	99.9304
4148.1323	99.9309
4148.6143	99.9173
4149.0967	99.8946
4149.5786	99.8683
4150.0610	99.8432
4150.5430	99.8244
4151.0249	99.8167
4151.5073	99.822
4151.9893	99.8376
4152.4712	99.8568
4152.9536	99.872
4153.4355	99.8786
4153.9180	99.8772
4154.3999	99.8723
4154.8818	99.8693
4155.3643	99.8718
4155.8462	99.8807
4156.3281	99.8939
4156.8105	99.9069
4157.2925	99.9155
4157.7749	99.9172
4158.2568	99.9141
4158.7388	99.9121
4159.2212	99.9182
4159.7031	99.9352
4160.1851	99.9591
4160.6675	99.9804
4161.1494	99.99
4161.6318	99.9855
4162.1138	99.9732
4162.5957	99.9649
4163.0781	99.9703
4163.5601	99.991
4164.0420	100.019
4164.5244	100.042
4165.0063	100.048
4165.4888	100.031
4165.9707	99.998
4166.4526	99.9606
4166.9351	99.9341
4167.4170	99.929
4167.8989	99.947
4168.3813	99.9803
4168.8633	100.016
4169.3457	100.041
4169.8276	100.048
4170.3096	100.039
4170.7920	100.017
4171.2739	99.9884
4171.7559	99.9584
4172.2383	99.9328
4172.7202	99.9173
4173.2026	99.9161
4173.6846	99.9285
4174.1665	99.9465
4174.6489	99.9572
4175.1309	99.9493
4175.6128	99.9196
4176.0952	99.8758
4176.5771	99.8331
4177.0596	99.8063
4177.5415	99.8032
4178.0234	99.8229
4178.5059	99.8585
4178.9878	99.9015
4179.4697	99.9448
4179.9521	99.9832
4180.4341	100.013
4180.9165	100.032
4181.3984	100.038
4181.8804	100.032
4182.3628	100.017
4182.8447	99.9966
4183.3267	99.9735
4183.8091	99.9502
4184.2910	99.9298
4184.7734	99.916
4185.2554	99.9124
4185.7373	99.9197
4186.2197	99.934
4186.7017	99.9472
4187.1836	99.9508
4187.6660	99.9407
4188.1479	99.9205
4188.6304	99.9008
4189.1123	99.8935
4189.5942	99.9055
4190.0767	99.9343
4190.5586	99.9692
4191.0405	99.9963
4191.5229	100.006
4192.0049	99.9972
4192.4873	99.9762
4192.9692	99.952
4193.4512	99.9307
4193.9336	99.913
4194.4155	99.8957
4194.8975	99.875
4195.3799	99.8496
4195.8618	99.822
4196.3442	99.7974
4196.8262	99.7818
4197.3081	99.781
4197.7905	99.7987
4198.2725	99.835
4198.7544	99.8844
4199.2368	99.936
4199.7188	99.9761
4200.2012	99.9935
4200.6831	99.9853
4201.1650	99.9579
4201.6475	99.9246
4202.1294	99.8994
4202.6113	99.8906
4203.0938	99.8989
4203.5757	99.9185
4204.0581	99.9409
4204.5400	99.9587
4205.0220	99.9686
4205.5044	99.9718
4205.9863	99.9736
4206.4683	99.9804
4206.9507	99.9958
4207.4326	100.017
4207.9150	100.036
4208.3970	100.039
4208.8789	100.019
4209.3613	99.9783
4209.8433	99.9319
4210.3252	99.8986
4210.8076	99.8924
4211.2896	99.9142
4211.7720	99.9502
4212.2539	99.9803
4212.7358	99.9878
4213.2183	99.9681
4213.7002	99.9292
4214.1821	99.8856
4214.6646	99.8503
4215.1465	99.8292
4215.6289	99.8206
4216.1108	99.8185
4216.5928	99.8175
4217.0752	99.8159
4217.5571	99.8154
4218.0391	99.8204
4218.5215	99.8347
4219.0034	99.8603
4219.4858	99.8959
4219.9678	99.9372
4220.4497	99.9775
4220.9321	100.01
4221.4141	100.028
4221.8960	100.031
4222.3784	100.022
4222.8604	100.007
4223.3428	99.994
4223.8247	99.9893
4224.3066	99.9927
4224.7891	99.9992
4225.2710	100.001
4225.7529	99.9925
4226.2354	99.9726
4226.7173	99.9465
4227.1997	99.9217
4227.6816	99.9048
4228.1636	99.8979
4228.6460	99.8985
4229.1279	99.9022
4229.6099	99.9055
4230.0923	99.9082
4230.5742	99.9126
4231.0566	99.9214
4231.5386	99.9361
4232.0205	99.9555
4232.5029	99.9768
4232.9849	99.9957
4233.4668	100.008
4233.9492	100.012
4234.4312	100.005
4234.9136	99.9888
4235.3955	99.9685
4235.8774	99.9493
4236.3599	99.9359
4236.8418	99.9298
4237.3237	99.9272
4237.8062	99.9208
4238.2881	99.9028
4238.7705	99.8703
4239.2524	99.8283
4239.7344	99.79
4240.2168	99.7713
4240.6987	99.7844
4241.1807	99.8313
4241.6631	99.9016
4242.1450	99.9765
4242.6274	100.036
4243.1094	100.066
4243.5913	100.065
4244.0737	100.039
4244.5557	100.002
4245.0376	99.9691
4245.5200	99.9503
4246.0020	99.9501
4246.4844	99.9662
4246.9663	99.9907
4247.4482	100.012
4247.9307	100.019
4248.4126	100.008
4248.8945	99.9834
4249.3770	99.9605
4249.8589	99.9565
4250.3413	99.9807
4250.8232	100.027
4251.3052	100.075
4251.7876	100.102
4252.2695	100.097
4252.7515	100.066
4253.2339	100.03
4253.7158	100.01
4254.1982	100.01
4254.6802	100.021
4255.1621	100.024
4255.6445	100.013
4256.1265	99.9913
4256.6084	99.9752
4257.0908	99.9742
4257.5728	99.9822
4258.0552	99.9796
4258.5371	99.9475
4259.0190	99.8828
4259.5015	99.803
4259.9834	99.7364
4260.4653	99.7051
4260.9478	99.713
4261.4297	99.7475
4261.9121	99.7914
4262.3940	99.8359
4262.8760	99.8843
4263.3584	99.9447
4263.8403	100.018
4264.3223	100.089
4264.8047	100.136
4265.2866	100.138
4265.7690	100.089
4266.2510	100.003
4266.7329	99.907
4267.2153	99.8288
4267.6973	99.7852
4268.1792	99.7793
4268.6616	99.8024
4269.1436	99.8402
4269.6260	99.8767
4270.1079	99.8983
4270.5898	99.8956
4271.0723	99.8674
4271.5542	99.8233
4272.0361	99.7825
4272.5186	99.7662
4273.0005	99.7872
4273.4829	99.8428
4273.9648	99.9148
4274.4468	99.9797
4274.9292	100.021
4275.4111	100.037
4275.8931	100.039
4276.3755	100.038
4276.8574	100.04
4277.3398	100.044
4277.8218	100.043
4278.3037	100.038
4278.7861	100.035
4279.2681	100.042
4279.7500	100.065
4280.2324	100.1
4280.7144	100.136
4281.1968	100.163
4281.6787	100.176
4282.1606	100.174
4282.6431	100.157
4283.1250	100.122
4283.6069	100.065
4284.0894	99.9893
4284.5713	99.9058
4285.0537	99.8334
4285.5356	99.791
4286.0176	99.7883
4286.5000	99.8206
4286.9819	99.8712
4287.4639	99.9197
4287.9463	99.9507
4288.4282	99.9594
4288.9106	99.9518
4289.3926	99.9407
4289.8745	99.9391
4290.3569	99.9548
4290.8389	99.9862
4291.3208	100.022
4291.8032	100.048
4292.2852	100.049
4292.7676	100.025
4293.2495	99.9835
4293.7314	99.9433
4294.2139	99.9203
4294.6958	99.9205
4295.1777	99.9373
4295.6602	99.9569
4296.1421	99.9679
4296.6245	99.968
4297.1064	99.9637
4297.5884	99.9628
4298.0708	99.967
4298.5527	99.9696
4299.0347	99.9611
4299.5171	99.9374
4299.9990	99.9057
4300.4814	99.8813
4300.9634	99.8779
4301.4453	99.8983
4301.9277	99.932
4302.4097	99.9622
4302.8916	99.9758
4303.3740	99.9721
4303.8560	99.9614
4304.3384	99.9571
4304.8203	99.9658
4305.3022	99.9841
4305.7847	100.002
4306.2666	100.01
4306.7485	100.009
4307.2310	100.005
4307.7129	100.008
4308.1953	100.019
4308.6772	100.036
4309.1592	100.05
4309.6416	100.054
4310.1235	100.046
4310.6055	100.032
4311.0879	100.017
4311.5698	100.008
4312.0522	100.007
4312.5342	100.012
4313.0161	100.017
4313.4985	100.015
4313.9805	99.9997
4314.4624	99.972
4314.9448	99.9391
4315.4268	99.9148
4315.9092	99.9126
4316.3911	99.9375
4316.8730	99.9818
4317.3555	100.027
4317.8374	100.052
4318.3193	100.045
4318.8018	100.009
4319.2837	99.9598
4319.7661	99.9177
4320.2480	99.8978
4320.7300	99.9036
4321.2124	99.9274
4321.6943	99.9548
4322.1763	99.9719
4322.6587	99.9705
4323.1406	99.9507
4323.6230	99.9191
4324.1050	99.8856
4324.5869	99.8587
4325.0693	99.8425
4325.5513	99.8363
4326.0332	99.837
4326.5156	99.8413
4326.9976	99.8475
4327.4800	99.8548
4327.9619	99.8627
4328.4438	99.8695
4328.9263	99.8746
4329.4082	99.8792
4329.8901	99.8861
4330.3726	99.8978
4330.8545	99.9126
4331.3369	99.9234
4331.8188	99.9206
4332.3008	99.8978
4332.7832	99.8568
4333.2651	99.8092
4333.7471	99.7723
4334.2295	99.7618
4334.7114	99.7847
4335.1938	99.8364
4335.6758	99.9025
4336.1577	99.9648
4336.6401	100.008
4337.1221	100.024
4337.6040	100.016
4338.0864	99.9938
4338.5684	99.9692
4339.0508	99.9517
4339.5327	99.9437
4340.0146	99.9419
4340.4971	99.941
4340.9790	99.9375
4341.4609	99.9312
4341.9434	99.9234
4342.4253	99.9127
4342.9077	99.8935
4343.3896	99.8596
4343.8716	99.8095
4344.3540	99.7516
4344.8359	99.7026
4345.3179	99.6799
4345.8003	99.692
4346.2822	99.7327
4346.7646	99.7841
4347.2466	99.8267
4347.7285	99.849
4348.2109	99.8526
4348.6929	99.8493
4349.1748	99.8519
4349.6572	99.8671
4350.1392	99.892
4350.6216	99.9168
4351.1035	99.9305
4351.5854	99.9256
4352.0679	99.9005
4352.5498	99.8597
4353.0317	99.8121
4353.5142	99.7692
4353.9961	99.7442
4354.4785	99.7483
4354.9604	99.787
4355.4424	99.8566
4355.9248	99.9424
4356.4067	100.022
4356.8887	100.072
4357.3711	100.079
4357.8530	100.04
4358.3354	99.9727
4358.8174	99.8986
4359.2993	99.8403
4359.7817	99.8099
4360.2637	99.8067
4360.7456	99.8209
4361.2280	99.84
4361.7100	99.8558
4362.1924	99.8659
4362.6743	99.8724
4363.1563	99.8779
4363.6387	99.8826
4364.1206	99.8842
4364.6025	99.8801
4365.0850	99.8706
4365.5669	99.86
4366.0493	99.8554
4366.5313	99.8626
4367.0132	99.8822
4367.4956	99.9072
4367.9775	99.9257
4368.4595	99.9268
4368.9419	99.9061
4369.4238	99.8691
4369.9063	99.8284
4370.3882	99.7972
4370.8701	99.7828
4371.3525	99.7834
4371.8345	99.7914
4372.3164	99.799
4372.7988	99.804
4373.2808	99.8107
4373.7632	99.8261
4374.2451	99.8531
4374.7271	99.8867
4375.2095	99.9158
4375.6914	99.9291
4376.1733	99.9226
4376.6558	99.9023
4377.1377	99.8809
4377.6201	99.8696
4378.1021	99.871
4378.5840	99.8782
4379.0664	99.8803
4379.5483	99.8707
4380.0303	99.8518
4380.5127	99.8333
4380.9946	99.8247
4381.4771	99.829
4381.9590	99.8411
4382.4409	99.8525
4382.9233	99.8585
4383.4053	99.862
4383.8872	99.8718
4384.3696	99.8952
4384.8516	99.9319
4385.3340	99.9723
4385.8159	100.002
4386.2979	100.009
4386.7803	99.9905
4387.2622	99.9534
4387.7441	99.9112
4388.2266	99.8767
4388.7085	99.8571
4389.1909	99.8509
4389.6729	99.8511
4390.1548	99.8491
4390.6372	99.8403
4391.1191	99.8261
4391.6011	99.8128
4392.0835	99.8073
4392.5654	99.8126
4393.0479	99.8258
4393.5298	99.8391
4394.0117	99.8451
4394.4941	99.8408
4394.9761	99.8298
4395.4580	99.8199
4395.9404	99.8183
4396.4224	99.8273
4396.9048	99.8431
4397.3867	99.858
4397.8687	99.8655
4398.3511	99.8631
4398.8330	99.853
4399.3149	99.8409
4399.7974	99.8328
4400.2793	99.8337
4400.7617	99.8467
4401.2437	99.8727
4401.7256	99.9096
4402.2080	99.9522
4402.6899	99.992
4403.1719	100.019
4403.6543	100.025
4404.1362	100.007
4404.6187	99.9683
4405.1006	99.918
4405.5825	99.8703
4406.0649	99.8391
4406.5469	99.8337
4407.0288	99.8556
4407.5112	99.8969
4407.9932	99.9441
4408.4756	99.9836
4408.9575	100.007
4409.4395	100.014
4409.9219	100.009
4410.4038	99.995
4410.8857	99.9742
4411.3682	99.9443
4411.8501	99.9047
4412.3325	99.8598
4412.8145	99.8186
4413.2964	99.7912
4413.7788	99.783
4414.2607	99.7937
4414.7427	99.8186
4415.2251	99.8533
4415.7070	99.8952
4416.1895	99.9422
4416.6714	99.9879
4417.1533	100.021
4417.6357	100.027
4418.1177	99.9997
4418.5996	99.9439
4419.0820	99.8787
4419.5640	99.8283
4420.0464	99.811
4420.5283	99.8297
4421.0103	99.8711
4421.4927	99.9132
4421.9746	99.9368
4422.4565	99.9349
4422.9390	99.9145
4423.4209	99.8907
4423.9033	99.8781
4424.3853	99.8842
4424.8672	99.908
4425.3496	99.9437
4425.8315	99.985
4426.3135	100.028
4426.7959	100.068
4427.2778	100.103
4427.7603	100.125
4428.2422	100.128
4428.7241	100.106
4429.2065	100.062
4429.6885	100.002
4430.1704	99.938
4430.6528	99.8848
4431.1348	99.8573
4431.6172	99.8652
4432.0991	99.9087
4432.5811	99.9756
4433.0635	100.044
4433.5454	100.092
4434.0273	100.104
4434.5098	100.083
4434.9917	100.044
4435.4741	100.005
4435.9561	99.98
4436.4380	99.9692
4436.9204	99.967
4437.4023	99.9689
4437.8843	99.9769
4438.3667	99.9962
4438.8486	100.028
4439.3311	100.063
4439.8130	100.085
4440.2949	100.08
4440.7773	100.044
4441.2593	99.9887
4441.7412	99.9344
4442.2236	99.8967
4442.7056	99.8809
4443.1880	99.8817
4443.6699	99.8902
4444.1519	99.9011
4444.6343	99.9149
4445.1162	99.9353
4445.5981	99.9642
4446.0806	99.9989
4446.5625	100.033
4447.0449	100.057
4447.5269	100.065
4448.0088	100.052
4448.4912	100.017
4448.9731	99.9603
4449.4551	99.892
4449.9375	99.8254
4450.4194	99.7761
4450.9019	99.7555
4451.3838	99.7656
4451.8657	99.7983
4452.3481	99.8399
4452.8301	99.8788
4453.3120	99.9106
4453.7944	99.9382
4454.2764	99.9664
4454.7588	99.9961
4455.2407	100.022
4455.7227	100.035
4456.2051	100.032
4456.6870	100.016
4457.1689	99.9969
4457.6514	99.9858
4458.1333	99.9874
4458.6157	99.9992
4459.0977	100.015
4459.5796	100.03
4460.0620	100.042
4460.5439	100.05
4461.0259	100.052
4461.5083	100.039
4461.9902	100.005
4462.4727	99.9515
4462.9546	99.8907
4463.4365	99.8426
4463.9189	99.824
4464.4009	99.8386
4464.8828	99.8763
4465.3652	99.9196
4465.8472	99.9552
4466.3296	99.9805
4466.8115	100.001
4467.2935	100.025
4467.7759	100.053
4468.2578	100.079
4468.7397	100.092
4469.2222	100.09
4469.7041	100.075
4470.1865	100.052
4470.6685	100.027
4471.1504	99.9986
4471.6328	99.9639
4472.1147	99.9209
4472.5967	99.8733
4473.0791	99.8302
4473.5610	99.802
4474.0435	99.7949
4474.5254	99.808
4475.0073	99.8355
4475.4897	99.871
4475.9717	99.9116
4476.4536	99.9567
4476.9360	100.005
4477.4180	100.048
4477.9004	100.073
4478.3823	100.069
4478.8643	100.03
4479.3467	99.9682
4479.8286	99.9043
4480.3105	99.8618
4480.7930	99.854
4481.2749	99.8791
4481.7573	99.9235
4482.2393	99.9712
4482.7212	100.013
4483.2036	100.046
4483.6855	100.075
4484.1675	100.096
4484.6499	100.104
4485.1318	100.091
4485.6143	100.054
4486.0962	100.002
4486.5781	99.9539
4487.0605	99.9296
4487.5425	99.939
4488.0244	99.9764
4488.5068	100.022
4488.9888	100.052
4489.4712	100.049
4489.9531	100.015
4490.4351	99.9644
4490.9175	99.9208
4491.3994	99.9017
4491.8813	99.9111
4492.3638	99.939
4492.8457	99.9683
4493.3281	99.985
4493.8101	99.9856
4494.2920	99.9766
4494.7744	99.9685
4495.2563	99.9688
4495.7383	99.9781
4496.2207	99.9921
4496.7026	100.006
4497.1851	100.018
4497.6670	100.028
4498.1489	100.037
4498.6313	100.04
4499.1133	100.036
4499.5952	100.023
4500.0776	100.009

##### Extended Information
[Comments]
Sample name	20c94-34-45
Comment
User
Division
Company	ETH Zurich

[Detailed Information]
Creation date	21/12/2020 15:57

Data array type	Linear data array
Horizontal axis	Wavenumber [cm-1]
Vertical axis	%T
Start	599.753 cm-1
End	4500.08 cm-1
Data interval	0.482117 cm-1
Data points	8091    

[Measurement Information]
Model Name	FT/IR-4100typeA
Serial Number	B111161016

Accessory	ATR PRO ONE
Accessory S/N	B131461809

Measurement Date	21/12/2020 15:57

Light Source	Standard
Detector	TGS
Accumulation	32
Resolution	2 cm-1
Zero Filling	On
Apodization	Cosine
Gain	Auto (16)
Aperture	Auto (5 mm)
Scanning Speed	Auto (2 mm/sec)
Filter	Auto (30000 Hz)

