[Comments]
Sample name	
Comment
User
Division
Company	ETH Zurich

[Detailed Information]
Creation date	31/05/2016 15:50

Data array type	Linear data array
Horizontal axis	Wavenumber [cm-1]
Vertical axis	%T
Start	349.053 cm-1
End	7800.65 cm-1
Data interval	0.964233 cm-1
Data points	7729    

[Measurement Information]
Model Name	FT/IR-4100typeA
Serial Number	B111161016

Measurement Date	31/05/2016 15:48

Light Source	Standard
Detector	TGS
Accumulation	32
Resolution	4 cm-1
Zero Filling	On
Apodization	Cosine
Gain	Auto (2)
Aperture	Auto (7.1 mm)
Scanning Speed	Auto (2 mm/sec)
Filter	Auto (30000 Hz)
TITLE	
DATA TYPE	INFRARED SPECTRUM
ORIGIN	JASCO
OWNER	
DATE	16/05/31
TIME	16:50:04
SPECTROMETER/DATA SYSTEM	
LOCALE	8192
RESOLUTION	
DELTAX	0.964233
XUNITS	1/CM
YUNITS	TRANSMITTANCE
FIRSTX	  349.0525
LASTX	 7800.6488
NPOINTS	    7729
FIRSTY	    38.42017
MAXY	    49.87555
MINY	    34.89141
XYDATA
349.0525	38.4202
350.0168	36.9809
350.9810	36.2783
351.9452	36.6872
352.9095	38.0036
353.8737	39.7875
354.8379	41.7907
355.8022	43.9598
356.7664	46.1736
357.7306	48.1095
358.6949	49.4018
359.6591	49.8755
360.6233	49.6286
361.5876	48.9656
362.5518	48.2573
363.5160	47.7764
364.4803	47.5875
365.4445	47.5682
366.4087	47.5399
367.3730	47.4114
368.3372	47.2412
369.3014	47.1718
370.2657	47.2835
371.2299	47.5105
372.1941	47.687
373.1584	47.6676
374.1226	47.4573
375.0868	47.2724
376.0511	47.3733
377.0153	47.7629
377.9795	48.1961
378.9438	48.4468
379.9080	48.4417
380.8722	48.2388
381.8365	47.9734
382.8007	47.7949
383.7649	47.7826
384.7292	47.8785
385.6934	47.9359
386.6576	47.8759
387.6219	47.7652
388.5861	47.7383
389.5503	47.8792
390.5146	48.16
391.4788	48.4503
392.4430	48.5826
393.4073	48.4441
394.3715	48.054
395.3357	47.5927
396.3000	47.3576
397.2642	47.5891
398.2284	48.2192
399.1927	48.8764
400.1569	49.2444
401.1211	49.2797
402.0854	49.1064
403.0496	48.8659
404.0138	48.6513
404.9781	48.499
405.9423	48.4003
406.9065	48.3247
407.8708	48.2464
408.8350	48.1573
409.7992	48.0616
410.7635	47.9605
411.7277	47.8439
412.6919	47.6955
413.6562	47.506
414.6204	47.281
415.5846	47.0423
416.5489	46.8308
417.5131	46.7078
418.4773	46.7294
419.4416	46.8832
420.4058	47.0716
421.3700	47.2004
422.3343	47.2432
423.2985	47.2201
424.2627	47.1645
425.2270	47.1066
426.1912	47.0673
427.1554	47.0542
428.1197	47.0618
429.0839	47.0767
430.0481	47.0861
431.0124	47.0844
431.9766	47.0771
432.9408	47.0773
433.9051	47.0956
434.8693	47.1301
435.8335	47.1626
436.7978	47.1677
437.7620	47.1282
438.7262	47.0446
439.6905	46.9323
440.6547	46.8099
441.6189	46.6874
442.5832	46.56
443.5474	46.4122
444.5116	46.2311
445.4759	46.0211
446.4401	45.8054
447.4043	45.6182
448.3686	45.4923
449.3328	45.449
450.2970	45.4881
451.2613	45.5826
452.2255	45.6832
453.1897	45.7346
454.1540	45.6987
455.1182	45.5723
456.0824	45.3944
457.0467	45.2342
458.0109	45.1543
458.9751	45.1661
459.9394	45.221
460.9036	45.2501
461.8678	45.2088
462.8321	45.091
463.7963	44.9186
464.7605	44.7234
465.7248	44.5327
466.6890	44.3639
467.6532	44.2304
468.6175	44.149
469.5817	44.1391
470.5459	44.208
471.5102	44.3307
472.4744	44.4476
473.4386	44.4953
474.4029	44.4519
475.3671	44.3526
476.3313	44.2633
477.2956	44.2421
478.2598	44.3103
479.2240	44.4453
480.1883	44.5938
481.1525	44.7012
482.1167	44.7384
483.0810	44.7148
484.0452	44.6673
485.0094	44.6358
485.9737	44.6397
486.9379	44.6707
487.9021	44.7061
488.8664	44.7256
489.8306	44.7236
490.7948	44.7103
491.7591	44.7047
492.7233	44.7231
493.6875	44.7701
494.6518	44.8376
495.6160	44.9116
496.5802	44.9803
497.5445	45.0371
498.5087	45.0797
499.4729	45.1066
500.4372	45.1161
501.4014	45.1087
502.3656	45.0912
503.3299	45.0766
504.2941	45.0796
505.2583	45.1087
506.2226	45.1619
507.1868	45.2275
508.1510	45.2884
509.1153	45.3294
510.0795	45.3427
511.0437	45.3301
512.0080	45.3005
512.9722	45.2654
513.9365	45.2349
514.9007	45.2149
515.8649	45.2056
516.8292	45.2033
517.7934	45.2043
518.7576	45.2085
519.7219	45.2208
520.6861	45.2461
521.6503	45.2857
522.6146	45.3345
523.5788	45.3831
524.5430	45.4216
525.5073	45.4437
526.4715	45.4497
527.4357	45.4444
528.4000	45.4327
529.3642	45.418
530.3284	45.4036
531.2927	45.3959
532.2569	45.4035
533.2211	45.433
534.1854	45.4831
535.1496	45.5417
536.1138	45.5898
537.0781	45.611
538.0423	45.5999
539.0065	45.5658
539.9708	45.5284
540.9350	45.5082
541.8992	45.5161
542.8635	45.5484
543.8277	45.5886
544.7919	45.6146
545.7562	45.61
546.7204	45.572
547.6846	45.5134
548.6489	45.4555
549.6131	45.4173
550.5773	45.4065
551.5416	45.4172
552.5058	45.434
553.4700	45.441
554.4343	45.4292
555.3985	45.4001
556.3627	45.3641
557.3270	45.3341
558.2912	45.3186
559.2554	45.3182
560.2197	45.3256
561.1839	45.3305
562.1481	45.3246
563.1124	45.3053
564.0766	45.2761
565.0408	45.244
566.0051	45.2164
566.9693	45.1982
567.9335	45.1918
568.8978	45.196
569.8620	45.2068
570.8262	45.2176
571.7905	45.221
572.7547	45.2112
573.7189	45.1869
574.6832	45.1532
575.6474	45.121
576.6116	45.1019
577.5759	45.1025
578.5401	45.1197
579.5043	45.1414
580.4686	45.1516
581.4328	45.1378
582.3970	45.0977
583.3613	45.0409
584.3255	44.9855
585.2897	44.9499
586.2540	44.9443
587.2182	44.966
588.1824	45.0005
589.1467	45.0278
590.1109	45.031
591.0751	45.0037
592.0394	44.9526
593.0036	44.8943
593.9678	44.847
594.9321	44.8222
595.8963	44.8213
596.8605	44.8377
597.8248	44.8604
598.7890	44.8777
599.7532	44.8814
600.7175	44.8688
601.6817	44.8441
602.6459	44.8167
603.6102	44.798
604.5744	44.7956
605.5386	44.8099
606.5029	44.8327
607.4671	44.851
608.4313	44.8531
609.3956	44.8359
610.3598	44.8068
611.3240	44.7793
612.2883	44.7657
613.2525	44.77
614.2167	44.7853
615.1810	44.7977
616.1452	44.7935
617.1094	44.7671
618.0737	44.7243
619.0379	44.6797
620.0021	44.649
620.9664	44.6416
621.9306	44.658
622.8948	44.6897
623.8591	44.7224
624.8233	44.7415
625.7875	44.7375
626.7518	44.7105
627.7160	44.6705
628.6802	44.6324
629.6445	44.6093
630.6087	44.6076
631.5729	44.6244
632.5372	44.6496
633.5014	44.6708
634.4656	44.6782
635.4299	44.6677
636.3941	44.642
637.3583	44.6087
638.3226	44.5773
639.2868	44.5564
640.2510	44.5511
641.2153	44.5611
642.1795	44.5815
643.1437	44.6048
644.1080	44.6251
645.0722	44.6406
646.0364	44.6534
647.0007	44.6663
647.9649	44.6805
648.9291	44.695
649.8934	44.7079
650.8576	44.7192
651.8218	44.73
652.7861	44.7404
653.7503	44.7476
654.7145	44.7462
655.6788	44.733
656.6430	44.7094
657.6072	44.6818
658.5715	44.6575
659.5357	44.6412
660.4999	44.6342
661.4642	44.6359
662.4284	44.6461
663.3926	44.6653
664.3569	44.6927
665.3211	44.725
666.2853	44.7537
667.2496	44.7662
668.2138	44.7569
669.1780	44.741
670.1423	44.7394
671.1065	44.7534
672.0707	44.7692
673.0350	44.7719
673.9992	44.7529
674.9634	44.7145
675.9277	44.6718
676.8919	44.6462
677.8561	44.6515
678.8204	44.6856
679.7846	44.7317
680.7488	44.7679
681.7131	44.7782
682.6773	44.7595
683.6415	44.7228
684.6058	44.6866
685.5700	44.6675
686.5342	44.6729
687.4985	44.6968
688.4627	44.7241
689.4269	44.7374
690.3912	44.7266
691.3554	44.6924
692.3196	44.645
693.2839	44.5985
694.2481	44.5649
695.2123	44.5505
696.1766	44.5549
697.1408	44.5723
698.1050	44.5938
699.0693	44.6099
700.0335	44.6133
700.9977	44.6012
701.9620	44.5761
702.9262	44.5445
703.8904	44.5147
704.8547	44.4934
705.8189	44.4838
706.7831	44.4856
707.7474	44.4955
708.7116	44.509
709.6758	44.5216
710.6401	44.5294
711.6043	44.5311
712.5685	44.5291
713.5328	44.529
714.4970	44.5373
715.4612	44.5579
716.4255	44.5882
717.3897	44.6189
718.3539	44.6371
719.3182	44.6326
720.2824	44.6039
721.2466	44.5609
722.2109	44.5205
723.1751	44.4986
724.1393	44.5027
725.1036	44.5306
726.0678	44.5717
727.0320	44.6111
727.9963	44.6355
728.9605	44.6375
729.9247	44.6189
730.8890	44.589
731.8532	44.5621
732.8174	44.5507
733.7817	44.5606
734.7459	44.5877
735.7101	44.6194
736.6744	44.6403
737.6386	44.6397
738.6028	44.6171
739.5671	44.5823
740.5313	44.5505
741.4955	44.5352
742.4598	44.5412
743.4240	44.5634
744.3882	44.5892
745.3525	44.6048
746.3167	44.601
747.2809	44.577
748.2452	44.5403
749.2094	44.5036
750.1736	44.4795
751.1379	44.4757
752.1021	44.4916
753.0663	44.5194
754.0306	44.548
754.9948	44.5673
755.9590	44.5734
756.9233	44.5685
757.8875	44.5591
758.8517	44.5527
759.8160	44.5539
760.7802	44.5637
761.7444	44.5792
762.7087	44.5955
763.6729	44.6067
764.6371	44.6083
765.6014	44.5984
766.5656	44.5793
767.5298	44.5576
768.4941	44.5415
769.4583	44.5378
770.4225	44.5477
771.3868	44.565
772.3510	44.5791
773.3152	44.5788
774.2795	44.5583
775.2437	44.5205
776.2079	44.4755
777.1722	44.437
778.1364	44.4155
779.1006	44.4149
780.0649	44.4306
781.0291	44.4519
781.9933	44.4671
782.9576	44.4673
783.9218	44.4503
784.8860	44.4208
785.8503	44.3886
786.8145	44.3646
787.7787	44.3567
788.7430	44.3662
789.7072	44.3867
790.6714	44.4067
791.6357	44.4138
792.5999	44.4002
793.5641	44.366
794.5284	44.3198
795.4926	44.2751
796.4568	44.2449
797.4211	44.2362
798.3853	44.2476
799.3495	44.2698
800.3138	44.2897
801.2780	44.296
802.2422	44.2837
803.2065	44.2564
804.1707	44.2244
805.1349	44.2008
806.0992	44.1956
807.0634	44.2121
808.0276	44.2449
808.9919	44.2833
809.9561	44.3152
810.9203	44.3324
811.8846	44.3337
812.8488	44.3245
813.8130	44.3145
814.7773	44.3132
815.7415	44.326
816.7057	44.3516
817.6700	44.3825
818.6342	44.4081
819.5984	44.4192
820.5627	44.4126
821.5269	44.3927
822.4911	44.3692
823.4554	44.3531
824.4196	44.3506
825.3839	44.3608
826.3481	44.3766
827.3123	44.389
828.2766	44.3916
829.2408	44.3834
830.2050	44.3678
831.1693	44.3507
832.1335	44.3369
833.0977	44.3291
834.0620	44.327
835.0262	44.3285
835.9904	44.3303
836.9547	44.3291
837.9189	44.3224
838.8831	44.31
839.8474	44.2944
840.8116	44.2812
841.7758	44.2775
842.7401	44.2892
843.7043	44.3181
844.6685	44.361
845.6328	44.4096
846.5970	44.4537
847.5612	44.4848
848.5255	44.4989
849.4897	44.4978
850.4539	44.4883
851.4182	44.4785
852.3824	44.4755
853.3466	44.4822
854.3109	44.4969
855.2751	44.5139
856.2393	44.5258
857.2036	44.5258
858.1678	44.5104
859.1320	44.4818
860.0963	44.4479
861.0605	44.4203
862.0247	44.4095
862.9890	44.4196
863.9532	44.4455
864.9174	44.474
865.8817	44.4898
866.8459	44.4825
867.8101	44.4519
868.7744	44.4077
869.7386	44.3644
870.7028	44.3344
871.6671	44.3224
872.6313	44.3246
873.5955	44.3312
874.5598	44.3316
875.5240	44.3188
876.4882	44.2918
877.4525	44.2557
878.4167	44.2188
879.3809	44.1893
880.3452	44.1722
881.3094	44.167
882.2736	44.1679
883.2379	44.1665
884.2021	44.1558
885.1663	44.133
886.1306	44.101
887.0948	44.0666
888.0590	44.0369
889.0233	44.0157
889.9875	44.0018
890.9517	43.9897
891.9160	43.9719
892.8802	43.9426
893.8444	43.8992
894.8087	43.8438
895.7729	43.7816
896.7371	43.7194
897.7014	43.6639
898.6656	43.6198
899.6298	43.5892
900.5941	43.5718
901.5583	43.5644
902.5225	43.5627
903.4868	43.5621
904.4510	43.5596
905.4152	43.555
906.3795	43.551
907.3437	43.5525
908.3079	43.5642
909.2722	43.5882
910.2364	43.6225
911.2006	43.662
912.1649	43.6999
913.1291	43.7309
914.0933	43.7535
915.0576	43.77
916.0218	43.7852
916.9860	43.8047
917.9503	43.8318
918.9145	43.8664
919.8787	43.9048
920.8430	43.9408
921.8072	43.9684
922.7714	43.9839
923.7357	43.9881
924.6999	43.9861
925.6641	43.9854
926.6284	43.9926
927.5926	44.0102
928.5568	44.0354
929.5211	44.061
930.4853	44.0784
931.4495	44.0812
932.4138	44.068
933.3780	44.043
934.3422	44.0146
935.3065	43.9922
936.2707	43.9825
937.2349	43.9867
938.1992	43.9997
939.1634	44.0121
940.1276	44.0143
941.0919	44.0013
942.0561	43.975
943.0203	43.9438
943.9846	43.9183
944.9488	43.9062
945.9130	43.9087
946.8773	43.92
947.8415	43.9308
948.8057	43.9322
949.7700	43.9205
950.7342	43.8974
951.6984	43.8697
952.6627	43.8454
953.6269	43.8311
954.5911	43.829
955.5554	43.8363
956.5196	43.8469
957.4838	43.853
958.4481	43.8486
959.4123	43.8315
960.3765	43.8041
961.3408	43.7724
962.3050	43.7433
963.2692	43.7216
964.2335	43.7079
965.1977	43.6979
966.1619	43.6843
967.1262	43.6596
968.0904	43.6192
969.0546	43.5638
970.0189	43.4994
970.9831	43.4356
971.9473	43.3824
972.9116	43.3467
973.8758	43.3305
974.8400	43.3303
975.8043	43.3388
976.7685	43.3478
977.7327	43.3509
978.6970	43.3454
979.6612	43.3326
980.6254	43.3167
981.5897	43.3021
982.5539	43.2917
983.5181	43.2855
984.4824	43.2807
985.4466	43.2729
986.4108	43.2574
987.3751	43.231
988.3393	43.1931
989.3035	43.146
990.2678	43.0943
991.2320	43.043
992.1962	42.9962
993.1605	42.9546
994.1247	42.9163
995.0889	42.8779
996.0532	42.8368
997.0174	42.7934
997.9816	42.7509
998.9459	42.7144
999.9101	42.6885
1000.8743	42.675
1001.8386	42.6723
1002.8028	42.6752
1003.7670	42.6771
1004.7313	42.6714
1005.6955	42.6539
1006.6597	42.624
1007.6240	42.5852
1008.5882	42.5436
1009.5524	42.5054
1010.5167	42.4742
1011.4809	42.4492
1012.4451	42.4258
1013.4094	42.3979
1014.3736	42.3614
1015.3378	42.3158
1016.3021	42.2646
1017.2663	42.2139
1018.2305	42.1693
1019.1948	42.1342
1020.1590	42.1081
1021.1232	42.0876
1022.0875	42.0673
1023.0517	42.0422
1024.0160	42.0087
1024.9802	41.966
1025.9445	41.9162
1026.9087	41.8636
1027.8729	41.8127
1028.8372	41.7672
1029.8014	41.7277
1030.7656	41.6919
1031.7299	41.6555
1032.6941	41.6137
1033.6583	41.5631
1034.6226	41.5035
1035.5868	41.4375
1036.5510	41.3699
1037.5153	41.3061
1038.4795	41.2496
1039.4437	41.201
1040.4080	41.1574
1041.3722	41.1138
1042.3364	41.0647
1043.3007	41.0067
1044.2649	40.9399
1045.2291	40.8685
1046.1934	40.7986
1047.1576	40.7365
1048.1218	40.685
1049.0861	40.6425
1050.0503	40.6033
1051.0145	40.5599
1051.9788	40.5063
1052.9430	40.4409
1053.9072	40.3668
1054.8715	40.2907
1055.8357	40.22
1056.7999	40.1599
1057.7642	40.111
1058.7284	40.0696
1059.6926	40.0291
1060.6569	39.9831
1061.6211	39.9275
1062.5853	39.8631
1063.5496	39.7945
1064.5138	39.7288
1065.4780	39.6723
1066.4423	39.6281
1067.4065	39.5941
1068.3707	39.5646
1069.3350	39.5322
1070.2992	39.4911
1071.2634	39.4393
1072.2277	39.3789
1073.1919	39.3145
1074.1561	39.2513
1075.1204	39.1927
1076.0846	39.1395
1077.0488	39.0896
1078.0131	39.0392
1078.9773	38.9848
1079.9415	38.9242
1080.9058	38.8585
1081.8700	38.7915
1082.8342	38.7291
1083.7985	38.6765
1084.7627	38.636
1085.7269	38.6065
1086.6912	38.5836
1087.6554	38.562
1088.6196	38.5368
1089.5839	38.5059
1090.5481	38.4692
1091.5123	38.4295
1092.4766	38.3907
1093.4408	38.3571
1094.4050	38.3319
1095.3693	38.3158
1096.3335	38.3068
1097.2977	38.3013
1098.2620	38.2954
1099.2262	38.2877
1100.1904	38.2804
1101.1547	38.2784
1102.1189	38.2881
1103.0831	38.314
1104.0474	38.358
1105.0116	38.4177
1105.9758	38.4881
1106.9401	38.5631
1107.9043	38.6376
1108.8685	38.7094
1109.8328	38.7793
1110.7970	38.8508
1111.7612	38.928
1112.7255	39.0134
1113.6897	39.1069
1114.6539	39.2049
1115.6182	39.3021
1116.5824	39.393
1117.5466	39.4741
1118.5109	39.5451
1119.4751	39.6083
1120.4393	39.6676
1121.4036	39.7272
1122.3678	39.7897
1123.3320	39.8553
1124.2963	39.9216
1125.2605	39.9847
1126.2247	40.0402
1127.1890	40.0852
1128.1532	40.1202
1129.1174	40.1489
1130.0817	40.177
1131.0459	40.2098
1132.0101	40.2493
1132.9744	40.2932
1133.9386	40.3353
1134.9028	40.3686
1135.8671	40.388
1136.8313	40.3927
1137.7955	40.3868
1138.7598	40.3777
1139.7240	40.3733
1140.6882	40.3798
1141.6525	40.3995
1142.6167	40.4307
1143.5809	40.468
1144.5452	40.5048
1145.5094	40.5357
1146.4736	40.5582
1147.4379	40.5742
1148.4021	40.5886
1149.3663	40.6071
1150.3306	40.6335
1151.2948	40.668
1152.2590	40.7073
1153.2233	40.7461
1154.1875	40.7797
1155.1517	40.8055
1156.1160	40.8235
1157.0802	40.8366
1158.0444	40.8486
1159.0087	40.8632
1159.9729	40.8821
1160.9371	40.9044
1161.9014	40.927
1162.8656	40.9457
1163.8298	40.9571
1164.7941	40.9614
1165.7583	40.962
1166.7225	40.9652
1167.6868	40.9775
1168.6510	41.003
1169.6152	41.0416
1170.5795	41.0891
1171.5437	41.1386
1172.5079	41.1832
1173.4722	41.2185
1174.4364	41.2434
1175.4006	41.2608
1176.3649	41.2753
1177.3291	41.2919
1178.2933	41.3135
1179.2576	41.3401
1180.2218	41.3695
1181.1860	41.3981
1182.1503	41.4231
1183.1145	41.4436
1184.0787	41.4614
1185.0430	41.4803
1186.0072	41.5043
1186.9714	41.5355
1187.9357	41.5737
1188.8999	41.6153
1189.8641	41.6554
1190.8284	41.6894
1191.7926	41.7147
1192.7568	41.7319
1193.7211	41.7443
1194.6853	41.7564
1195.6495	41.7722
1196.6138	41.7935
1197.5780	41.8194
1198.5422	41.847
1199.5065	41.8723
1200.4707	41.892
1201.4349	41.9053
1202.3992	41.9136
1203.3634	41.9206
1204.3276	41.9305
1205.2919	41.9465
1206.2561	41.9692
1207.2203	41.9963
1208.1846	42.0235
1209.1488	42.0458
1210.1130	42.0597
1211.0773	42.0645
1212.0415	42.0628
1213.0057	42.0596
1213.9700	42.06
1214.9342	42.0681
1215.8984	42.0849
1216.8627	42.1084
1217.8269	42.1345
1218.7911	42.1582
1219.7554	42.1758
1220.7196	42.1863
1221.6838	42.1914
1222.6481	42.1951
1223.6123	42.2021
1224.5765	42.2156
1225.5408	42.236
1226.5050	42.2607
1227.4692	42.2852
1228.4335	42.3047
1229.3977	42.3171
1230.3619	42.3229
1231.3262	42.326
1232.2904	42.3314
1233.2546	42.3432
1234.2189	42.3631
1235.1831	42.3893
1236.1473	42.4178
1237.1116	42.4434
1238.0758	42.4623
1239.0400	42.4735
1240.0043	42.4791
1240.9685	42.4839
1241.9327	42.4931
1242.8970	42.5103
1243.8612	42.536
1244.8254	42.5669
1245.7897	42.5979
1246.7539	42.6233
1247.7181	42.6401
1248.6824	42.6482
1249.6466	42.6506
1250.6108	42.6523
1251.5751	42.6584
1252.5393	42.6722
1253.5035	42.6948
1254.4678	42.724
1255.4320	42.7559
1256.3962	42.7857
1257.3605	42.8101
1258.3247	42.829
1259.2889	42.8454
1260.2532	42.8646
1261.2174	42.8915
1262.1816	42.928
1263.1459	42.9716
1264.1101	43.0169
1265.0743	43.0576
1266.0386	43.0893
1267.0028	43.111
1267.9670	43.1252
1268.9313	43.1362
1269.8955	43.1485
1270.8597	43.1647
1271.8240	43.1851
1272.7882	43.2078
1273.7524	43.2293
1274.7167	43.2462
1275.6809	43.2562
1276.6451	43.2593
1277.6094	43.2578
1278.5736	43.2563
1279.5378	43.2593
1280.5021	43.2701
1281.4663	43.289
1282.4305	43.313
1283.3948	43.3371
1284.3590	43.356
1285.3232	43.3662
1286.2875	43.3674
1287.2517	43.3633
1288.2159	43.3597
1289.1802	43.3624
1290.1444	43.3746
1291.1086	43.3949
1292.0729	43.4182
1293.0371	43.4376
1294.0013	43.4481
1294.9656	43.4481
1295.9298	43.4406
1296.8940	43.431
1297.8583	43.4247
1298.8225	43.4244
1299.7867	43.4294
1300.7510	43.4362
1301.7152	43.4399
1302.6794	43.4369
1303.6437	43.4258
1304.6079	43.4084
1305.5721	43.3895
1306.5364	43.3753
1307.5006	43.3706
1308.4648	43.3768
1309.4291	43.3907
1310.3933	43.4059
1311.3575	43.416
1312.3218	43.417
1313.2860	43.4095
1314.2502	43.3974
1315.2145	43.3856
1316.1787	43.3774
1317.1429	43.3745
1318.1072	43.3767
1319.0714	43.3832
1320.0356	43.3923
1320.9999	43.4015
1321.9641	43.408
1322.9283	43.4097
1323.8926	43.4068
1324.8568	43.4019
1325.8210	43.3992
1326.7853	43.402
1327.7495	43.4108
1328.7137	43.4222
1329.6780	43.4316
1330.6422	43.4355
1331.6064	43.4344
1332.5707	43.432
1333.5349	43.4331
1334.4991	43.4392
1335.4634	43.4467
1336.4276	43.4478
1337.3918	43.4344
1338.3561	43.4041
1339.3203	43.3644
1340.2845	43.3298
1341.2488	43.312
1342.2130	43.3136
1343.1772	43.329
1344.1415	43.3498
1345.1057	43.3689
1346.0699	43.3819
1347.0342	43.3875
1347.9984	43.3857
1348.9626	43.3777
1349.9269	43.3645
1350.8911	43.3467
1351.8553	43.3244
1352.8196	43.2972
1353.7838	43.267
1354.7480	43.2391
1355.7123	43.2214
1356.6765	43.2204
1357.6407	43.2352
1358.6050	43.2558
1359.5692	43.2657
1360.5334	43.2502
1361.4977	43.2068
1362.4619	43.1523
1363.4261	43.1128
1364.3904	43.103
1365.3546	43.1173
1366.3188	43.1371
1367.2831	43.1446
1368.2473	43.1309
1369.2115	43.0973
1370.1758	43.0487
1371.1400	42.9862
1372.1042	42.9054
1373.0685	42.8032
1374.0327	42.6889
1374.9969	42.5852
1375.9612	42.5148
1376.9254	42.4842
1377.8896	42.4833
1378.8539	42.4964
1379.8181	42.5145
1380.7823	42.5391
1381.7466	42.5773
1382.7108	42.6314
1383.6750	42.6924
1384.6393	42.7412
1385.6035	42.7581
1386.5677	42.7382
1387.5320	42.7005
1388.4962	42.6774
1389.4604	42.6885
1390.4247	42.7298
1391.3889	42.7813
1392.3531	42.8192
1393.3174	42.8254
1394.2816	42.7939
1395.2458	42.7342
1396.2101	42.6655
1397.1743	42.6071
1398.1385	42.5718
1399.1028	42.5659
1400.0670	42.5902
1401.0313	42.6383
1401.9955	42.6972
1402.9597	42.7501
1403.9240	42.7834
1404.8882	42.7943
1405.8524	42.7942
1406.8167	42.7996
1407.7809	42.8197
1408.7451	42.8508
1409.7094	42.8822
1410.6736	42.9073
1411.6378	42.9303
1412.6021	42.9625
1413.5663	43.0116
1414.5305	43.0715
1415.4948	43.1211
1416.4590	43.1315
1417.4232	43.0822
1418.3875	42.9866
1419.3517	42.8947
1420.3159	42.8518
1421.2802	42.863
1422.2444	42.9041
1423.2086	42.95
1424.1729	42.9888
1425.1371	43.02
1426.1013	43.0456
1427.0656	43.0612
1428.0298	43.058
1428.9940	43.0326
1429.9583	42.9965
1430.9225	42.9725
1431.8867	42.9759
1432.8510	42.9996
1433.8152	43.015
1434.7794	42.9848
1435.7437	42.8892
1436.7079	42.7553
1437.6721	42.6477
1438.6364	42.6115
1439.6006	42.6422
1440.5648	42.7072
1441.5291	42.7749
1442.4933	42.8258
1443.4575	42.8522
1444.4218	42.8533
1445.3860	42.8299
1446.3502	42.7829
1447.3145	42.7174
1448.2787	42.6484
1449.2429	42.5991
1450.2072	42.5895
1451.1714	42.6257
1452.1356	42.699
1453.0999	42.788
1454.0641	42.857
1455.0283	42.8493
1455.9926	42.705
1456.9568	42.4435
1457.9210	42.2177
1458.8853	42.1542
1459.8495	42.2333
1460.8137	42.3752
1461.7780	42.5131
1462.7422	42.6015
1463.7064	42.618
1464.6707	42.5796
1465.6349	42.5441
1466.5991	42.5669
1467.5634	42.66
1468.5276	42.7972
1469.4918	42.9372
1470.4561	43.0338
1471.4203	43.0443
1472.3845	42.9569
1473.3488	42.8246
1474.3130	42.7351
1475.2772	42.7307
1476.2415	42.7935
1477.2057	42.8865
1478.1699	42.98
1479.1342	43.0572
1480.0984	43.1127
1481.0626	43.1506
1482.0269	43.183
1482.9911	43.2238
1483.9553	43.2812
1484.9196	43.3508
1485.8838	43.4129
1486.8480	43.4334
1487.8123	43.3788
1488.7765	43.2517
1489.7407	43.1158
1490.7050	43.0488
1491.6692	43.0748
1492.6334	43.1664
1493.5977	43.2799
1494.5619	43.3728
1495.5261	43.4066
1496.4904	43.3598
1497.4546	43.2542
1498.4188	43.157
1499.3831	43.1307
1500.3473	43.1902
1501.3115	43.3159
1502.2758	43.4789
1503.2400	43.6476
1504.2042	43.7756
1505.1685	43.7828
1506.1327	43.5756
1507.0969	43.1922
1508.0612	42.8778
1509.0254	42.7894
1509.9896	42.8697
1510.9539	43.0183
1511.9181	43.1725
1512.8823	43.3003
1513.8466	43.3866
1514.8108	43.4301
1515.7750	43.4429
1516.7393	43.4434
1517.7035	43.4409
1518.6677	43.4278
1519.6320	43.3875
1520.5962	43.316
1521.5604	43.2352
1522.5247	43.1776
1523.4889	43.1562
1524.4531	43.1595
1525.4174	43.1707
1526.3816	43.187
1527.3458	43.2195
1528.3101	43.2775
1529.2743	43.3545
1530.2385	43.4268
1531.2028	43.4633
1532.1670	43.4465
1533.1312	43.3972
1534.0955	43.3709
1535.0597	43.4123
1536.0239	43.5215
1536.9882	43.6603
1537.9524	43.7629
1538.9166	43.7389
1539.8809	43.5152
1540.8451	43.1651
1541.8093	42.9046
1542.7736	42.8349
1543.7378	42.8919
1544.7020	42.9928
1545.6663	43.0955
1546.6305	43.1873
1547.5947	43.2659
1548.5590	43.3287
1549.5232	43.3712
1550.4874	43.3941
1551.4517	43.4105
1552.4159	43.444
1553.3801	43.5145
1554.3444	43.6231
1555.3086	43.742
1556.2728	43.8026
1557.2371	43.6913
1558.2013	43.3444
1559.1655	42.9442
1560.1298	42.7554
1561.0940	42.7916
1562.0582	42.9361
1563.0225	43.1048
1563.9867	43.2587
1564.9509	43.3795
1565.9152	43.4541
1566.8794	43.4691
1567.8436	43.4203
1568.8079	43.3315
1569.7721	43.2571
1570.7363	43.245
1571.7006	43.3017
1572.6648	43.3941
1573.6290	43.4679
1574.5933	43.4644
1575.5575	43.3526
1576.5217	43.177
1577.4860	43.0417
1578.4502	43.0096
1579.4144	43.0629
1580.3787	43.1495
1581.3429	43.225
1582.3071	43.2669
1583.2714	43.2745
1584.2356	43.2627
1585.1998	43.2476
1586.1641	43.2363
1587.1283	43.2265
1588.0925	43.2142
1589.0568	43.1987
1590.0210	43.1822
1590.9852	43.1655
1591.9495	43.1454
1592.9137	43.1173
1593.8779	43.0803
1594.8422	43.0397
1595.8064	43.0044
1596.7706	42.9813
1597.7349	42.9704
1598.6991	42.9657
1599.6633	42.9581
1600.6276	42.9406
1601.5918	42.9116
1602.5560	42.877
1603.5203	42.8462
1604.4845	42.8264
1605.4487	42.8165
1606.4130	42.807
1607.3772	42.7871
1608.3414	42.755
1609.3057	42.7249
1610.2699	42.7199
1611.2341	42.7539
1612.1984	42.8193
1613.1626	42.8865
1614.1268	42.9102
1615.0911	42.8478
1616.0553	42.6997
1617.0195	42.5378
1617.9838	42.4494
1618.9480	42.4564
1619.9122	42.5182
1620.8765	42.5768
1621.8407	42.588
1622.8049	42.5391
1623.7692	42.4564
1624.7334	42.3833
1625.6976	42.3422
1626.6619	42.3248
1627.6261	42.3159
1628.5903	42.3165
1629.5546	42.3435
1630.5188	42.41
1631.4830	42.5093
1632.4473	42.6096
1633.4115	42.6554
1634.3757	42.5819
1635.3400	42.3727
1636.3042	42.1241
1637.2684	41.9705
1638.2327	41.9483
1639.1969	42.0135
1640.1611	42.1188
1641.1254	42.2386
1642.0896	42.3593
1643.0538	42.4617
1644.0181	42.509
1644.9823	42.4537
1645.9465	42.286
1646.9108	42.0912
1647.8750	41.9937
1648.8392	42.0355
1649.8035	42.1651
1650.7677	42.2839
1651.7319	42.2621
1652.6962	41.9992
1653.6604	41.6107
1654.6246	41.3811
1655.5889	41.3966
1656.5531	41.5544
1657.5173	41.7525
1658.4816	41.9309
1659.4458	42.0531
1660.4100	42.0972
1661.3743	42.0689
1662.3385	42.0146
1663.3027	41.9973
1664.2670	42.0484
1665.2312	42.1541
1666.1954	42.275
1667.1597	42.3659
1668.1239	42.3913
1669.0881	42.3498
1670.0524	42.2892
1671.0166	42.2718
1671.9808	42.3183
1672.9451	42.3997
1673.9093	42.4715
1674.8735	42.5067
1675.8378	42.5168
1676.8020	42.5434
1677.7662	42.6223
1678.7305	42.7582
1679.6947	42.9275
1680.6589	43.0869
1681.6232	43.1753
1682.5874	43.1264
1683.5516	42.9331
1684.5159	42.7091
1685.4801	42.5885
1686.4443	42.5938
1687.4086	42.6734
1688.3728	42.7797
1689.3370	42.891
1690.3013	43.003
1691.2655	43.116
1692.2297	43.2257
1693.1940	43.3204
1694.1582	43.3838
1695.1224	43.4016
1696.0867	43.3672
1697.0509	43.2838
1698.0151	43.164
1698.9794	43.0312
1699.9436	42.9209
1700.9078	42.8655
1701.8721	42.8729
1702.8363	42.9229
1703.8005	42.982
1704.7648	43.0208
1705.7290	43.0289
1706.6932	43.0209
1707.6575	43.026
1708.6217	43.0657
1709.5859	43.1423
1710.5502	43.2437
1711.5144	43.3536
1712.4786	43.4553
1713.4429	43.5279
1714.4071	43.5393
1715.3713	43.4516
1716.3356	43.259
1717.2998	43.0354
1718.2640	42.8931
1719.2283	42.8764
1720.1925	42.9502
1721.1567	43.0596
1722.1210	43.1638
1723.0852	43.2416
1724.0494	43.2899
1725.0137	43.3187
1725.9779	43.3446
1726.9421	43.3825
1727.9064	43.4394
1728.8706	43.5118
1729.8348	43.5831
1730.7991	43.6207
1731.7633	43.5818
1732.7275	43.4442
1733.6918	43.2544
1734.6560	43.1125
1735.6202	43.0803
1736.5845	43.1413
1737.5487	43.2419
1738.5129	43.3314
1739.4772	43.3782
1740.4414	43.378
1741.4056	43.3537
1742.3699	43.339
1743.3341	43.3555
1744.2983	43.4035
1745.2626	43.4671
1746.2268	43.5221
1747.1910	43.5412
1748.1553	43.5034
1749.1195	43.4122
1750.0837	43.3069
1751.0480	43.2401
1752.0122	43.2372
1752.9764	43.2872
1753.9407	43.3608
1754.9049	43.4308
1755.8691	43.4812
1756.8334	43.5097
1757.7976	43.5214
1758.7618	43.52
1759.7261	43.5039
1760.6903	43.4719
1761.6545	43.4331
1762.6188	43.4074
1763.5830	43.413
1764.5472	43.454
1765.5115	43.5199
1766.4757	43.5926
1767.4399	43.6539
1768.4042	43.6873
1769.3684	43.6771
1770.3326	43.6106
1771.2969	43.4912
1772.2611	43.3533
1773.2253	43.252
1774.1896	43.224
1775.1538	43.2659
1776.1180	43.3469
1777.0823	43.4305
1778.0465	43.4888
1779.0107	43.5101
1779.9750	43.5012
1780.9392	43.4805
1781.9034	43.4629
1782.8677	43.4522
1783.8319	43.4464
1784.7961	43.448
1785.7604	43.467
1786.7246	43.5118
1787.6888	43.5786
1788.6531	43.6465
1789.6173	43.6815
1790.5815	43.65
1791.5458	43.5461
1792.5100	43.4137
1793.4742	43.3214
1794.4385	43.3064
1795.4027	43.3566
1796.3669	43.4345
1797.3312	43.502
1798.2954	43.532
1799.2596	43.5155
1800.2239	43.466
1801.1881	43.4125
1802.1523	43.3819
1803.1166	43.3854
1804.0808	43.4174
1805.0450	43.4644
1806.0093	43.5114
1806.9735	43.545
1807.9377	43.5548
1808.9020	43.5369
1809.8662	43.4977
1810.8304	43.4541
1811.7947	43.4256
1812.7589	43.4228
1813.7231	43.4419
1814.6874	43.4689
1815.6516	43.4888
1816.6158	43.4951
1817.5801	43.4933
1818.5443	43.4966
1819.5085	43.5145
1820.4728	43.5448
1821.4370	43.5746
1822.4012	43.5891
1823.3655	43.5823
1824.3297	43.5626
1825.2939	43.5449
1826.2582	43.5365
1827.2224	43.528
1828.1866	43.5012
1829.1509	43.4474
1830.1151	43.383
1831.0793	43.3405
1832.0436	43.3421
1833.0078	43.3829
1833.9720	43.4379
1834.9363	43.4796
1835.9005	43.4939
1836.8647	43.4885
1837.8290	43.4878
1838.7932	43.5127
1839.7574	43.5639
1840.7217	43.6202
1841.6859	43.6477
1842.6501	43.6173
1843.6144	43.5264
1844.5786	43.4113
1845.5428	43.3242
1846.5071	43.2929
1847.4713	43.3097
1848.4355	43.3502
1849.3998	43.3925
1850.3640	43.4257
1851.3282	43.4487
1852.2925	43.4652
1853.2567	43.4782
1854.2209	43.488
1855.1852	43.493
1856.1494	43.4927
1857.1136	43.4876
1858.0779	43.4792
1859.0421	43.4693
1860.0063	43.4613
1860.9706	43.4612
1861.9348	43.4758
1862.8990	43.5084
1863.8633	43.5536
1864.8275	43.5952
1865.7917	43.6095
1866.7560	43.5746
1867.7202	43.4878
1868.6844	43.3786
1869.6487	43.2941
1870.6129	43.2652
1871.5771	43.2891
1872.5414	43.3419
1873.5056	43.3969
1874.4698	43.4355
1875.4341	43.4519
1876.3983	43.4518
1877.3625	43.4467
1878.3268	43.4457
1879.2910	43.4502
1880.2552	43.4557
1881.2195	43.4573
1882.1837	43.4552
1883.1479	43.4548
1884.1122	43.4617
1885.0764	43.4759
1886.0406	43.4896
1887.0049	43.491
1887.9691	43.4727
1888.9333	43.4385
1889.8976	43.4034
1890.8618	43.383
1891.8260	43.3824
1892.7903	43.3945
1893.7545	43.4063
1894.7188	43.409
1895.6830	43.4029
1896.6472	43.3962
1897.6115	43.3972
1898.5757	43.4075
1899.5399	43.4218
1900.5042	43.4325
1901.4684	43.4359
1902.4326	43.434
1903.3969	43.433
1904.3611	43.4377
1905.3253	43.4476
1906.2896	43.4565
1907.2538	43.4556
1908.2180	43.44
1909.1823	43.413
1910.1465	43.3868
1911.1107	43.376
1912.0750	43.3885
1913.0392	43.4207
1914.0034	43.4588
1914.9677	43.4854
1915.9319	43.4879
1916.8961	43.4658
1917.8604	43.432
1918.8246	43.4034
1919.7888	43.3884
1920.7531	43.383
1921.7173	43.3773
1922.6815	43.3657
1923.6458	43.3519
1924.6100	43.3457
1925.5742	43.3539
1926.5385	43.3744
1927.5027	43.3982
1928.4669	43.4154
1929.4312	43.4217
1930.3954	43.4191
1931.3596	43.4134
1932.3239	43.4087
1933.2881	43.4059
1934.2523	43.4046
1935.2166	43.4064
1936.1808	43.415
1937.1450	43.4324
1938.1093	43.4553
1939.0735	43.4743
1940.0377	43.4774
1941.0020	43.4574
1941.9662	43.4181
1942.9304	43.3742
1943.8947	43.3429
1944.8589	43.333
1945.8231	43.3416
1946.7874	43.3587
1947.7516	43.3751
1948.7158	43.3863
1949.6801	43.3927
1950.6443	43.3969
1951.6085	43.4005
1952.5728	43.4029
1953.5370	43.4027
1954.5012	43.4
1955.4655	43.3961
1956.4297	43.3925
1957.3939	43.3898
1958.3582	43.3874
1959.3224	43.3855
1960.2866	43.3859
1961.2509	43.3911
1962.2151	43.4017
1963.1793	43.414
1964.1436	43.4208
1965.1078	43.4153
1966.0720	43.3958
1967.0363	43.3686
1968.0005	43.3446
1968.9647	43.3335
1969.9290	43.338
1970.8932	43.3532
1971.8574	43.371
1972.8217	43.3843
1973.7859	43.3902
1974.7501	43.3899
1975.7144	43.3863
1976.6786	43.3819
1977.6428	43.3779
1978.6071	43.3747
1979.5713	43.3729
1980.5355	43.3734
1981.4998	43.3763
1982.4640	43.3807
1983.4282	43.385
1984.3925	43.3881
1985.3567	43.3907
1986.3209	43.3943
1987.2852	43.3991
1988.2494	43.4027
1989.2136	43.4002
1990.1779	43.3878
1991.1421	43.3661
1992.1063	43.3416
1993.0706	43.3237
1994.0348	43.3186
1994.9990	43.3259
1995.9633	43.3398
1996.9275	43.3529
1997.8917	43.3605
1998.8560	43.3622
1999.8202	43.3613
2000.7844	43.361
2001.7487	43.3625
2002.7129	43.3646
2003.6771	43.3654
2004.6414	43.3641
2005.6056	43.3612
2006.5698	43.358
2007.5341	43.3553
2008.4983	43.3535
2009.4625	43.3533
2010.4268	43.3556
2011.3910	43.3608
2012.3552	43.3679
2013.3195	43.3736
2014.2837	43.3739
2015.2479	43.3662
2016.2122	43.3516
2017.1764	43.3351
2018.1406	43.3231
2019.1049	43.3195
2020.0691	43.3239
2021.0333	43.332
2021.9976	43.339
2022.9618	43.3416
2023.9260	43.3396
2024.8903	43.3354
2025.8545	43.3318
2026.8187	43.3307
2027.7830	43.3323
2028.7472	43.3357
2029.7114	43.339
2030.6757	43.3406
2031.6399	43.3393
2032.6041	43.3353
2033.5684	43.3297
2034.5326	43.3248
2035.4968	43.323
2036.4611	43.3252
2037.4253	43.3302
2038.3895	43.3349
2039.3538	43.3359
2040.3180	43.3314
2041.2822	43.3224
2042.2465	43.3124
2043.2107	43.305
2044.1749	43.3025
2045.1392	43.3049
2046.1034	43.3104
2047.0676	43.3165
2048.0320	43.3211
2048.9961	43.3228
2049.9604	43.3214
2050.9246	43.3176
2051.8889	43.3128
2052.8530	43.309
2053.8174	43.3076
2054.7815	43.309
2055.7458	43.3123
2056.7100	43.3158
2057.6743	43.3179
2058.6384	43.3181
2059.6028	43.3166
2060.5669	43.3144
2061.5313	43.3116
2062.4954	43.308
2063.4597	43.3035
2064.4238	43.2988
2065.3882	43.2954
2066.3523	43.2943
2067.3167	43.2957
2068.2808	43.2981
2069.2451	43.2996
2070.2092	43.299
2071.1736	43.2969
2072.1377	43.2948
2073.1021	43.2943
2074.0662	43.2958
2075.0305	43.2979
2075.9946	43.2988
2076.9590	43.2971
2077.9231	43.2928
2078.8875	43.2871
2079.8516	43.2823
2080.8159	43.2797
2081.7800	43.2802
2082.7444	43.2835
2083.7085	43.2882
2084.6729	43.2928
2085.6370	43.2957
2086.6013	43.2956
2087.5654	43.2924
2088.5298	43.2873
2089.4939	43.2821
2090.4583	43.2791
2091.4224	43.2793
2092.3867	43.2825
2093.3508	43.2871
2094.3152	43.291
2095.2793	43.2927
2096.2437	43.2916
2097.2078	43.2886
2098.1721	43.2851
2099.1362	43.2823
2100.1006	43.2813
2101.0647	43.282
2102.0291	43.284
2102.9932	43.2864
2103.9575	43.2882
2104.9216	43.2887
2105.8860	43.2875
2106.8501	43.285
2107.8145	43.2821
2108.7786	43.2799
2109.7429	43.2792
2110.7070	43.2803
2111.6714	43.2824
2112.6355	43.2844
2113.5999	43.2853
2114.5640	43.2845
2115.5283	43.2824
2116.4924	43.2796
2117.4568	43.2773
2118.4209	43.2762
2119.3853	43.2767
2120.3494	43.2784
2121.3137	43.2807
2122.2778	43.2825
2123.2422	43.2831
2124.2063	43.2821
2125.1707	43.2798
2126.1348	43.2768
2127.0991	43.2743
2128.0632	43.2732
2129.0276	43.274
2129.9917	43.2766
2130.9561	43.28
2131.9202	43.283
2132.8845	43.2841
2133.8486	43.2824
2134.8130	43.2781
2135.7771	43.2727
2136.7415	43.268
2137.7056	43.2658
2138.6699	43.2667
2139.6340	43.27
2140.5984	43.2739
2141.5625	43.2766
2142.5269	43.277
2143.4910	43.2756
2144.4553	43.2734
2145.4194	43.2721
2146.3838	43.2725
2147.3479	43.2746
2148.3123	43.2774
2149.2764	43.2798
2150.2407	43.2809
2151.2048	43.2805
2152.1692	43.2789
2153.1333	43.277
2154.0977	43.2752
2155.0618	43.274
2156.0261	43.2737
2156.9902	43.2743
2157.9546	43.2757
2158.9187	43.2774
2159.8831	43.2788
2160.8472	43.2795
2161.8115	43.279
2162.7756	43.2776
2163.7400	43.2761
2164.7041	43.275
2165.6685	43.2749
2166.6326	43.2756
2167.5969	43.2768
2168.5610	43.2778
2169.5254	43.2784
2170.4895	43.2782
2171.4539	43.2775
2172.4180	43.2765
2173.3823	43.2754
2174.3464	43.2746
2175.3108	43.2741
2176.2749	43.2739
2177.2393	43.2741
2178.2034	43.2743
2179.1677	43.2744
2180.1318	43.2744
2181.0962	43.2743
2182.0603	43.274
2183.0247	43.2734
2183.9888	43.2725
2184.9531	43.2713
2185.9172	43.2701
2186.8816	43.2692
2187.8457	43.2689
2188.8101	43.2691
2189.7742	43.2696
2190.7385	43.27
2191.7026	43.2701
2192.6670	43.2698
2193.6311	43.2692
2194.5955	43.2684
2195.5596	43.2677
2196.5239	43.267
2197.4880	43.2664
2198.4524	43.2657
2199.4165	43.2647
2200.3809	43.2634
2201.3450	43.262
2202.3093	43.2606
2203.2734	43.2596
2204.2378	43.2594
2205.2019	43.2599
2206.1663	43.2608
2207.1304	43.2613
2208.0947	43.2608
2209.0588	43.2586
2210.0232	43.255
2210.9873	43.2505
2211.9517	43.2464
2212.9158	43.2438
2213.8801	43.2433
2214.8442	43.2449
2215.8086	43.2479
2216.7727	43.251
2217.7371	43.253
2218.7012	43.2533
2219.6655	43.2521
2220.6296	43.2503
2221.5940	43.2489
2222.5581	43.2489
2223.5225	43.2506
2224.4866	43.2534
2225.4509	43.2567
2226.4150	43.2593
2227.3794	43.2607
2228.3435	43.2607
2229.3079	43.2598
2230.2720	43.2587
2231.2363	43.2581
2232.2004	43.2587
2233.1648	43.2605
2234.1289	43.2632
2235.0933	43.2657
2236.0574	43.2675
2237.0217	43.2679
2237.9858	43.2671
2238.9502	43.2658
2239.9143	43.2646
2240.8787	43.2643
2241.8428	43.2651
2242.8071	43.2667
2243.7712	43.2685
2244.7356	43.27
2245.6997	43.2705
2246.6641	43.2698
2247.6282	43.2681
2248.5925	43.2659
2249.5566	43.2643
2250.5210	43.2639
2251.4851	43.2649
2252.4495	43.2671
2253.4136	43.2694
2254.3779	43.271
2255.3420	43.2713
2256.3064	43.2703
2257.2705	43.2688
2258.2349	43.2675
2259.1990	43.2673
2260.1633	43.2682
2261.1274	43.2698
2262.0918	43.2713
2263.0559	43.272
2264.0203	43.2713
2264.9844	43.2692
2265.9487	43.2662
2266.9128	43.2632
2267.8772	43.2609
2268.8413	43.26
2269.8057	43.2603
2270.7698	43.2615
2271.7341	43.2624
2272.6982	43.2621
2273.6626	43.2597
2274.6267	43.2552
2275.5911	43.2493
2276.5552	43.2433
2277.5195	43.2386
2278.4836	43.2365
2279.4480	43.2377
2280.4121	43.242
2281.3765	43.2487
2282.3406	43.2567
2283.3049	43.2648
2284.2690	43.2722
2285.2334	43.2782
2286.1975	43.2829
2287.1619	43.287
2288.1260	43.2912
2289.0903	43.2961
2290.0544	43.3019
2291.0188	43.3077
2291.9829	43.3126
2292.9473	43.3157
2293.9114	43.3172
2294.8757	43.3181
2295.8398	43.32
2296.8042	43.3237
2297.7683	43.3296
2298.7327	43.3368
2299.6968	43.3449
2300.6611	43.3537
2301.6252	43.3641
2302.5896	43.377
2303.5537	43.3927
2304.5181	43.411
2305.4822	43.4307
2306.4465	43.4503
2307.4106	43.4682
2308.3750	43.4823
2309.3391	43.4909
2310.3035	43.493
2311.2676	43.4898
2312.2319	43.486
2313.1960	43.4884
2314.1604	43.503
2315.1245	43.5324
2316.0889	43.5737
2317.0530	43.6195
2318.0173	43.66
2318.9814	43.6862
2319.9458	43.6931
2320.9099	43.6822
2321.8743	43.6617
2322.8384	43.6433
2323.8027	43.6374
2324.7668	43.6486
2325.7312	43.6739
2326.6953	43.7041
2327.6597	43.7278
2328.6238	43.7354
2329.5881	43.7238
2330.5522	43.6986
2331.5166	43.672
2332.4807	43.6567
2333.4451	43.6592
2334.4092	43.6771
2335.3735	43.7003
2336.3376	43.7175
2337.3020	43.7226
2338.2661	43.7181
2339.2305	43.7104
2340.1946	43.6979
2341.1589	43.6626
2342.1230	43.5763
2343.0874	43.4289
2344.0515	43.2567
2345.0159	43.1309
2345.9800	43.1056
2346.9443	43.1891
2347.9084	43.3563
2348.8728	43.5719
2349.8369	43.8008
2350.8013	44.0095
2351.7654	44.1671
2352.7297	44.2518
2353.6938	44.2639
2354.6582	44.2291
2355.6223	44.1806
2356.5867	44.1339
2357.5508	44.0829
2358.5151	44.0163
2359.4792	43.9335
2360.4436	43.8442
2361.4077	43.7577
2362.3721	43.6752
2363.3362	43.5933
2364.3005	43.5102
2365.2646	43.4282
2366.2290	43.3505
2367.1931	43.279
2368.1575	43.2142
2369.1216	43.1564
2370.0859	43.1066
2371.0500	43.0657
2372.0144	43.0333
2372.9785	43.0075
2373.9429	42.9862
2374.9070	42.9678
2375.8713	42.9524
2376.8354	42.9411
2377.7998	42.9353
2378.7639	42.9366
2379.7283	42.9457
2380.6924	42.9622
2381.6567	42.9849
2382.6208	43.0118
2383.5852	43.0406
2384.5493	43.0691
2385.5137	43.0954
2386.4778	43.1187
2387.4421	43.1382
2388.4063	43.1541
2389.3706	43.1666
2390.3347	43.1758
2391.2991	43.1822
2392.2632	43.1859
2393.2275	43.1875
2394.1917	43.1877
2395.1560	43.1871
2396.1201	43.1865
2397.0845	43.1861
2398.0486	43.1859
2399.0129	43.1856
2399.9771	43.185
2400.9414	43.1843
2401.9055	43.1835
2402.8699	43.1828
2403.8340	43.182
2404.7983	43.1811
2405.7625	43.18
2406.7268	43.1788
2407.6909	43.1775
2408.6553	43.1764
2409.6194	43.1753
2410.5837	43.1742
2411.5479	43.1727
2412.5122	43.1708
2413.4763	43.1687
2414.4407	43.1667
2415.4048	43.1652
2416.3691	43.1646
2417.3333	43.1649
2418.2976	43.166
2419.2617	43.1677
2420.2261	43.1697
2421.1902	43.1718
2422.1545	43.1736
2423.1187	43.1749
2424.0830	43.1752
2425.0471	43.1745
2426.0115	43.1732
2426.9756	43.172
2427.9399	43.1718
2428.9041	43.1729
2429.8684	43.1753
2430.8325	43.1782
2431.7969	43.1806
2432.7610	43.1816
2433.7253	43.1812
2434.6895	43.1799
2435.6538	43.1784
2436.6179	43.1774
2437.5823	43.1772
2438.5464	43.1775
2439.5107	43.1779
2440.4749	43.1781
2441.4392	43.1777
2442.4033	43.1769
2443.3677	43.1759
2444.3318	43.1751
2445.2961	43.1746
2446.2603	43.1748
2447.2246	43.1755
2448.1887	43.1764
2449.1531	43.1769
2450.1172	43.1765
2451.0815	43.1747
2452.0457	43.1718
2453.0100	43.1683
2453.9741	43.1651
2454.9385	43.1629
2455.9026	43.1621
2456.8669	43.1624
2457.8311	43.1629
2458.7954	43.1627
2459.7595	43.161
2460.7239	43.1576
2461.6880	43.1528
2462.6523	43.1473
2463.6165	43.142
2464.5808	43.1371
2465.5449	43.1329
2466.5093	43.1288
2467.4734	43.1239
2468.4377	43.1174
2469.4019	43.1088
2470.3662	43.0979
2471.3303	43.0854
2472.2947	43.073
2473.2588	43.0626
2474.2231	43.0559
2475.1873	43.0542
2476.1516	43.0575
2477.1157	43.0646
2478.0801	43.0736
2479.0442	43.0827
2480.0085	43.0906
2480.9727	43.0969
2481.9370	43.102
2482.9011	43.1066
2483.8655	43.1111
2484.8296	43.1157
2485.7939	43.1201
2486.7581	43.1239
2487.7224	43.1263
2488.6865	43.1273
2489.6509	43.1268
2490.6150	43.1253
2491.5793	43.1236
2492.5435	43.1224
2493.5078	43.1224
2494.4719	43.1235
2495.4363	43.1252
2496.4004	43.1267
2497.3647	43.1273
2498.3289	43.1269
2499.2932	43.1259
2500.2573	43.1251
2501.2217	43.1251
2502.1858	43.1262
2503.1501	43.1283
2504.1143	43.1304
2505.0786	43.1319
2506.0427	43.1323
2507.0071	43.1315
2507.9712	43.1301
2508.9355	43.1286
2509.8997	43.1279
2510.8640	43.1282
2511.8281	43.1297
2512.7925	43.1318
2513.7566	43.1339
2514.7209	43.1353
2515.6851	43.1355
2516.6494	43.1345
2517.6135	43.1327
2518.5779	43.1307
2519.5420	43.1292
2520.5063	43.1285
2521.4705	43.1286
2522.4348	43.1292
2523.3989	43.1301
2524.3633	43.1311
2525.3274	43.1318
2526.2917	43.1321
2527.2559	43.1319
2528.2202	43.1309
2529.1843	43.1293
2530.1487	43.1273
2531.1128	43.1257
2532.0771	43.125
2533.0413	43.1256
2534.0056	43.1273
2534.9697	43.1294
2535.9341	43.1312
2536.8982	43.1321
2537.8625	43.1319
2538.8267	43.1312
2539.7910	43.1304
2540.7551	43.1301
2541.7195	43.1307
2542.6836	43.132
2543.6479	43.1335
2544.6121	43.1345
2545.5764	43.1346
2546.5405	43.1335
2547.5049	43.1318
2548.4690	43.1302
2549.4333	43.1291
2550.3975	43.1288
2551.3618	43.1291
2552.3259	43.1296
2553.2903	43.1295
2554.2544	43.1289
2555.2188	43.1278
2556.1829	43.1269
2557.1472	43.1266
2558.1113	43.1274
2559.0757	43.1289
2560.0398	43.1306
2561.0042	43.1318
2561.9683	43.1318
2562.9326	43.1303
2563.8967	43.1275
2564.8611	43.1241
2565.8252	43.121
2566.7896	43.1191
2567.7537	43.1189
2568.7180	43.1203
2569.6821	43.1224
2570.6465	43.124
2571.6106	43.124
2572.5750	43.1219
2573.5391	43.1182
2574.5034	43.1141
2575.4675	43.1109
2576.4319	43.1093
2577.3960	43.1091
2578.3604	43.1094
2579.3245	43.1093
2580.2888	43.1083
2581.2529	43.1066
2582.2173	43.105
2583.1814	43.1042
2584.1458	43.1047
2585.1099	43.1064
2586.0742	43.1087
2587.0383	43.1111
2588.0027	43.113
2588.9668	43.114
2589.9312	43.1139
2590.8953	43.1131
2591.8596	43.1117
2592.8237	43.1101
2593.7881	43.1088
2594.7522	43.1082
2595.7166	43.1082
2596.6807	43.1088
2597.6450	43.1095
2598.6091	43.11
2599.5735	43.1097
2600.5376	43.1085
2601.5020	43.1064
2602.4661	43.1039
2603.4304	43.1015
2604.3945	43.0995
2605.3589	43.0979
2606.3230	43.0967
2607.2874	43.0954
2608.2515	43.0939
2609.2158	43.0922
2610.1799	43.0903
2611.1443	43.0884
2612.1084	43.0866
2613.0728	43.0849
2614.0369	43.0834
2615.0012	43.082
2615.9653	43.0809
2616.9297	43.08
2617.8938	43.079
2618.8582	43.0779
2619.8223	43.0762
2620.7866	43.0741
2621.7507	43.0718
2622.7151	43.0698
2623.6792	43.0685
2624.6436	43.0682
2625.6077	43.0687
2626.5720	43.0696
2627.5361	43.0701
2628.5005	43.0698
2629.4646	43.0685
2630.4290	43.0666
2631.3931	43.0646
2632.3574	43.0631
2633.3215	43.0624
2634.2859	43.0621
2635.2500	43.0619
2636.2144	43.0612
2637.1785	43.0598
2638.1428	43.0578
2639.1069	43.0555
2640.0713	43.0535
2641.0354	43.0519
2641.9998	43.0508
2642.9639	43.0501
2643.9282	43.0494
2644.8923	43.0486
2645.8567	43.0473
2646.8208	43.0456
2647.7852	43.0433
2648.7493	43.0407
2649.7136	43.0381
2650.6777	43.036
2651.6421	43.0349
2652.6062	43.0347
2653.5706	43.0349
2654.5347	43.0345
2655.4990	43.0327
2656.4631	43.0293
2657.4275	43.0246
2658.3916	43.0199
2659.3560	43.0162
2660.3201	43.0144
2661.2844	43.0144
2662.2485	43.0156
2663.2129	43.0167
2664.1770	43.0169
2665.1414	43.0156
2666.1055	43.0129
2667.0698	43.0093
2668.0339	43.0055
2668.9983	43.0019
2669.9624	42.999
2670.9268	42.9967
2671.8909	42.9951
2672.8552	42.9938
2673.8193	42.9924
2674.7837	42.9904
2675.7478	42.9873
2676.7122	42.9828
2677.6763	42.9773
2678.6406	42.9717
2679.6047	42.9673
2680.5691	42.9649
2681.5332	42.9649
2682.4976	42.9664
2683.4617	42.968
2684.4260	42.9682
2685.3901	42.9661
2686.3545	42.962
2687.3186	42.9569
2688.2830	42.9519
2689.2471	42.9479
2690.2114	42.9453
2691.1755	42.9436
2692.1399	42.942
2693.1040	42.9398
2694.0684	42.9362
2695.0325	42.9312
2695.9968	42.9253
2696.9609	42.9192
2697.9253	42.9135
2698.8894	42.9088
2699.8538	42.9048
2700.8179	42.9011
2701.7822	42.8971
2702.7463	42.8923
2703.7107	42.8866
2704.6748	42.8799
2705.6392	42.8725
2706.6033	42.8646
2707.5676	42.8564
2708.5317	42.8483
2709.4961	42.8405
2710.4602	42.8328
2711.4246	42.8248
2712.3887	42.8157
2713.3530	42.8052
2714.3171	42.7932
2715.2815	42.7806
2716.2456	42.7682
2717.2100	42.7569
2718.1741	42.7468
2719.1384	42.738
2720.1025	42.73
2721.0669	42.7227
2722.0310	42.7166
2722.9954	42.7121
2723.9595	42.7101
2724.9238	42.7112
2725.8879	42.7157
2726.8523	42.7232
2727.8164	42.7328
2728.7808	42.7429
2729.7449	42.7522
2730.7092	42.7596
2731.6733	42.7647
2732.6377	42.7678
2733.6018	42.7694
2734.5662	42.7704
2735.5303	42.7712
2736.4946	42.772
2737.4587	42.7732
2738.4231	42.7745
2739.3872	42.776
2740.3516	42.7773
2741.3157	42.7786
2742.2800	42.7799
2743.2441	42.7814
2744.2085	42.7831
2745.1726	42.7844
2746.1370	42.7845
2747.1011	42.7823
2748.0654	42.7775
2749.0295	42.7709
2749.9939	42.764
2750.9580	42.7585
2751.9224	42.7556
2752.8865	42.7551
2753.8508	42.7558
2754.8149	42.7562
2755.7793	42.7555
2756.7434	42.7537
2757.7078	42.7513
2758.6719	42.7495
2759.6362	42.7486
2760.6003	42.7487
2761.5647	42.7493
2762.5288	42.7498
2763.4932	42.7497
2764.4573	42.7489
2765.4216	42.7477
2766.3857	42.7461
2767.3501	42.7444
2768.3142	42.7425
2769.2786	42.7402
2770.2427	42.7375
2771.2070	42.7342
2772.1711	42.7308
2773.1355	42.7279
2774.0996	42.7262
2775.0640	42.7262
2776.0281	42.7277
2776.9924	42.7298
2777.9565	42.7314
2778.9209	42.7314
2779.8850	42.7297
2780.8494	42.7271
2781.8135	42.7245
2782.7778	42.7228
2783.7419	42.722
2784.7063	42.7209
2785.6704	42.7182
2786.6348	42.7126
2787.5989	42.7041
2788.5632	42.6936
2789.5273	42.6833
2790.4917	42.675
2791.4558	42.6698
2792.4202	42.6675
2793.3843	42.6666
2794.3486	42.6649
2795.3127	42.6607
2796.2771	42.6533
2797.2412	42.6433
2798.2056	42.6322
2799.1697	42.6214
2800.1340	42.6121
2801.0981	42.6041
2802.0625	42.5967
2803.0266	42.5891
2803.9910	42.58
2804.9551	42.5692
2805.9194	42.5564
2806.8835	42.5422
2807.8479	42.5278
2808.8120	42.5145
2809.7764	42.5035
2810.7405	42.4953
2811.7048	42.4897
2812.6689	42.4854
2813.6333	42.4811
2814.5974	42.4754
2815.5618	42.4681
2816.5259	42.4594
2817.4902	42.4501
2818.4543	42.4404
2819.4187	42.4302
2820.3828	42.4188
2821.3472	42.4051
2822.3113	42.3883
2823.2756	42.3684
2824.2397	42.3454
2825.2041	42.3198
2826.1682	42.2918
2827.1326	42.2613
2828.0967	42.2277
2829.0610	42.1906
2830.0251	42.1499
2830.9895	42.1062
2831.9536	42.0612
2832.9180	42.0171
2833.8821	41.9764
2834.8464	41.9412
2835.8105	41.9133
2836.7749	41.8933
2837.7390	41.8814
2838.7034	41.8771
2839.6675	41.88
2840.6318	41.8889
2841.5959	41.9027
2842.5603	41.9194
2843.5244	41.9369
2844.4888	41.9532
2845.4529	41.9666
2846.4172	41.9766
2847.3813	41.9839
2848.3457	41.9897
2849.3098	41.9958
2850.2742	42.0032
2851.2383	42.0125
2852.2026	42.0229
2853.1667	42.0334
2854.1311	42.0423
2855.0952	42.0481
2856.0596	42.0496
2857.0237	42.0462
2857.9880	42.0377
2858.9521	42.0245
2859.9165	42.0076
2860.8806	41.9881
2861.8450	41.967
2862.8091	41.9456
2863.7734	41.9252
2864.7375	41.9074
2865.7019	41.8936
2866.6660	41.8851
2867.6304	41.882
2868.5945	41.8827
2869.5588	41.885
2870.5229	41.8865
2871.4873	41.8856
2872.4514	41.882
2873.4158	41.8769
2874.3799	41.8719
2875.3442	41.8681
2876.3083	41.8663
2877.2727	41.8663
2878.2368	41.8678
2879.2012	41.8703
2880.1653	41.8734
2881.1296	41.8766
2882.0938	41.8792
2883.0581	41.8809
2884.0222	41.8815
2884.9866	41.8813
2885.9507	41.8806
2886.9150	41.8798
2887.8792	41.8786
2888.8435	41.8765
2889.8076	41.8728
2890.7720	41.8667
2891.7361	41.8579
2892.7004	41.8464
2893.6646	41.8327
2894.6289	41.818
2895.5930	41.8032
2896.5574	41.789
2897.5215	41.7755
2898.4858	41.7622
2899.4500	41.7481
2900.4143	41.7325
2901.3784	41.7154
2902.3428	41.6973
2903.3069	41.6795
2904.2712	41.6631
2905.2354	41.6485
2906.1997	41.6355
2907.1638	41.6233
2908.1282	41.6108
2909.0923	41.5969
2910.0566	41.5811
2911.0208	41.5632
2911.9851	41.5437
2912.9492	41.5234
2913.9136	41.5032
2914.8777	41.4844
2915.8420	41.4679
2916.8062	41.4542
2917.7705	41.4434
2918.7346	41.4351
2919.6990	41.429
2920.6631	41.425
2921.6274	41.4233
2922.5916	41.424
2923.5559	41.427
2924.5200	41.4314
2925.4844	41.4363
2926.4485	41.4411
2927.4128	41.4459
2928.3770	41.4519
2929.3413	41.4607
2930.3054	41.4735
2931.2698	41.4904
2932.2339	41.5102
2933.1982	41.5308
2934.1624	41.5502
2935.1267	41.567
2936.0908	41.5805
2937.0552	41.5907
2938.0193	41.5974
2938.9836	41.6003
2939.9478	41.5987
2940.9121	41.5916
2941.8762	41.5788
2942.8406	41.5606
2943.8047	41.5382
2944.7690	41.5135
2945.7332	41.4883
2946.6975	41.4644
2947.6616	41.4425
2948.6260	41.4227
2949.5901	41.4045
2950.5544	41.3875
2951.5186	41.3713
2952.4829	41.3561
2953.4470	41.3417
2954.4114	41.3282
2955.3755	41.315
2956.3398	41.3018
2957.3040	41.2886
2958.2683	41.2759
2959.2324	41.2649
2960.1968	41.257
2961.1609	41.253
2962.1252	41.2532
2963.0894	41.257
2964.0537	41.2635
2965.0178	41.2724
2965.9822	41.2837
2966.9463	41.2978
2967.9106	41.3152
2968.8748	41.3357
2969.8391	41.3584
2970.8032	41.382
2971.7676	41.4053
2972.7317	41.4276
2973.6960	41.4495
2974.6602	41.4714
2975.6245	41.4939
2976.5886	41.5164
2977.5530	41.5378
2978.5171	41.5568
2979.4814	41.573
2980.4456	41.5873
2981.4099	41.6013
2982.3740	41.6163
2983.3384	41.6328
2984.3025	41.6499
2985.2668	41.6662
2986.2310	41.6813
2987.1953	41.6956
2988.1594	41.7103
2989.1238	41.7263
2990.0879	41.7436
2991.0522	41.761
2992.0164	41.7772
2992.9807	41.7914
2993.9448	41.8037
2994.9092	41.8153
2995.8733	41.8275
2996.8376	41.8415
2997.8018	41.8572
2998.7661	41.8738
2999.7302	41.8896
3000.6946	41.9026
3001.6587	41.9116
3002.6230	41.9165
3003.5872	41.9189
3004.5515	41.9212
3005.5156	41.9256
3006.4800	41.9328
3007.4441	41.9415
3008.4084	41.9493
3009.3726	41.954
3010.3369	41.9546
3011.3010	41.9522
3012.2654	41.9487
3013.2295	41.9463
3014.1938	41.9464
3015.1580	41.9489
3016.1223	41.953
3017.0864	41.9577
3018.0508	41.9623
3019.0149	41.9664
3019.9792	41.9696
3020.9434	41.9712
3021.9077	41.9708
3022.8718	41.9689
3023.8362	41.9667
3024.8003	41.9663
3025.7646	41.969
3026.7288	41.9743
3027.6931	41.9797
3028.6572	41.9821
3029.6216	41.9789
3030.5857	41.9702
3031.5500	41.9585
3032.5142	41.9478
3033.4785	41.9412
3034.4426	41.9397
3035.4070	41.9422
3036.3711	41.9465
3037.3354	41.9505
3038.2996	41.953
3039.2639	41.9535
3040.2280	41.9524
3041.1924	41.9504
3042.1565	41.9486
3043.1208	41.9482
3044.0850	41.9497
3045.0493	41.9525
3046.0134	41.9548
3046.9778	41.9545
3047.9419	41.951
3048.9063	41.9456
3049.8704	41.941
3050.8347	41.9399
3051.7988	41.9427
3052.7632	41.9475
3053.7273	41.9507
3054.6917	41.9493
3055.6558	41.9426
3056.6201	41.933
3057.5842	41.9244
3058.5486	41.9202
3059.5127	41.9215
3060.4771	41.9265
3061.4412	41.9318
3062.4055	41.9338
3063.3696	41.9301
3064.3340	41.9211
3065.2981	41.9092
3066.2625	41.8979
3067.2266	41.8899
3068.1909	41.8863
3069.1550	41.8863
3070.1194	41.888
3071.0835	41.8901
3072.0479	41.8917
3073.0120	41.8931
3073.9763	41.8945
3074.9404	41.8956
3075.9048	41.895
3076.8689	41.8914
3077.8333	41.8843
3078.7974	41.8745
3079.7617	41.8641
3080.7258	41.8552
3081.6902	41.8494
3082.6543	41.8466
3083.6187	41.8457
3084.5828	41.845
3085.5471	41.8429
3086.5112	41.8389
3087.4756	41.8339
3088.4397	41.8295
3089.4041	41.8274
3090.3682	41.828
3091.3325	41.8302
3092.2966	41.8317
3093.2610	41.8303
3094.2251	41.8252
3095.1895	41.8174
3096.1536	41.8089
3097.1179	41.8009
3098.0820	41.7932
3099.0464	41.785
3100.0105	41.7759
3100.9749	41.767
3101.9390	41.7605
3102.9033	41.7582
3103.8674	41.7599
3104.8318	41.7632
3105.7959	41.7648
3106.7603	41.7625
3107.7244	41.7565
3108.6887	41.749
3109.6528	41.743
3110.6172	41.7398
3111.5813	41.7387
3112.5457	41.737
3113.5098	41.7322
3114.4741	41.7235
3115.4382	41.7121
3116.4026	41.7011
3117.3667	41.693
3118.3311	41.6889
3119.2952	41.6879
3120.2595	41.688
3121.2236	41.6868
3122.1880	41.683
3123.1521	41.6767
3124.1165	41.6687
3125.0806	41.6604
3126.0449	41.6534
3127.0090	41.6487
3127.9734	41.6463
3128.9375	41.6454
3129.9019	41.6442
3130.8660	41.6411
3131.8303	41.6353
3132.7944	41.6277
3133.7588	41.6199
3134.7229	41.6135
3135.6873	41.6089
3136.6514	41.6053
3137.6157	41.6014
3138.5798	41.5962
3139.5442	41.5897
3140.5083	41.5827
3141.4727	41.576
3142.4368	41.5698
3143.4011	41.5643
3144.3652	41.5593
3145.3296	41.5549
3146.2937	41.5514
3147.2581	41.5487
3148.2222	41.5461
3149.1865	41.5423
3150.1506	41.5365
3151.1150	41.5284
3152.0791	41.519
3153.0435	41.5099
3154.0076	41.5024
3154.9719	41.4972
3155.9360	41.494
3156.9004	41.4913
3157.8645	41.4879
3158.8289	41.4827
3159.7930	41.4756
3160.7573	41.4675
3161.7214	41.4594
3162.6858	41.4522
3163.6499	41.4462
3164.6143	41.4413
3165.5784	41.4371
3166.5427	41.4329
3167.5068	41.4282
3168.4712	41.4225
3169.4353	41.4159
3170.3997	41.4092
3171.3638	41.4037
3172.3281	41.3999
3173.2922	41.3976
3174.2566	41.3949
3175.2207	41.3896
3176.1851	41.3802
3177.1492	41.3674
3178.1135	41.3541
3179.0776	41.3437
3180.0420	41.3379
3181.0061	41.3361
3181.9705	41.3354
3182.9346	41.3328
3183.8989	41.3268
3184.8630	41.3178
3185.8274	41.308
3186.7915	41.2987
3187.7559	41.2905
3188.7200	41.2827
3189.6843	41.2753
3190.6484	41.2689
3191.6128	41.2647
3192.5769	41.263
3193.5413	41.2621
3194.5054	41.2591
3195.4697	41.2518
3196.4338	41.2399
3197.3982	41.2259
3198.3623	41.2132
3199.3267	41.2044
3200.2908	41.1998
3201.2551	41.1977
3202.2192	41.1959
3203.1836	41.1928
3204.1477	41.1879
3205.1121	41.1811
3206.0762	41.173
3207.0405	41.1644
3208.0046	41.1564
3208.9690	41.1502
3209.9331	41.146
3210.8975	41.1429
3211.8616	41.1392
3212.8259	41.1337
3213.7900	41.1264
3214.7544	41.1187
3215.7185	41.1121
3216.6829	41.1065
3217.6470	41.1007
3218.6113	41.0929
3219.5754	41.083
3220.5398	41.0728
3221.5039	41.0651
3222.4683	41.0618
3223.4324	41.0622
3224.3967	41.0637
3225.3608	41.063
3226.3252	41.0584
3227.2893	41.0502
3228.2537	41.0404
3229.2178	41.0311
3230.1821	41.0236
3231.1462	41.0177
3232.1106	41.0126
3233.0747	41.0074
3234.0391	41.0014
3235.0032	40.9945
3235.9675	40.9872
3236.9316	40.9805
3237.8960	40.9756
3238.8601	40.9733
3239.8245	40.9733
3240.7886	40.9736
3241.7529	40.9713
3242.7170	40.9641
3243.6814	40.9516
3244.6455	40.9359
3245.6099	40.921
3246.5740	40.9109
3247.5383	40.9078
3248.5024	40.9108
3249.4668	40.9168
3250.4309	40.9218
3251.3953	40.9223
3252.3594	40.9169
3253.3237	40.9067
3254.2878	40.8942
3255.2522	40.8826
3256.2163	40.8738
3257.1807	40.8685
3258.1448	40.8656
3259.1091	40.8634
3260.0732	40.8605
3261.0376	40.8563
3262.0017	40.8511
3262.9661	40.8454
3263.9302	40.8402
3264.8945	40.8357
3265.8586	40.8322
3266.8230	40.8298
3267.7871	40.8284
3268.7515	40.8278
3269.7156	40.8274
3270.6799	40.8258
3271.6440	40.8216
3272.6084	40.8138
3273.5725	40.8029
3274.5369	40.7905
3275.5010	40.7791
3276.4653	40.771
3277.4294	40.7671
3278.3938	40.7666
3279.3579	40.7674
3280.3223	40.7671
3281.2864	40.7643
3282.2507	40.7587
3283.2148	40.7518
3284.1792	40.7455
3285.1433	40.7412
3286.1077	40.7391
3287.0718	40.7378
3288.0361	40.7353
3289.0002	40.73
3289.9646	40.7216
3290.9287	40.7112
3291.8931	40.7007
3292.8572	40.6915
3293.8215	40.684
3294.7856	40.6777
3295.7500	40.6718
3296.7141	40.6662
3297.6785	40.6611
3298.6426	40.6566
3299.6069	40.6525
3300.5710	40.6483
3301.5354	40.6436
3302.4995	40.6388
3303.4639	40.6345
3304.4280	40.6305
3305.3923	40.626
3306.3564	40.6193
3307.3208	40.6094
3308.2849	40.5965
3309.2493	40.5821
3310.2134	40.5682
3311.1777	40.556
3312.1418	40.5456
3313.1062	40.5365
3314.0703	40.5279
3315.0347	40.5196
3315.9988	40.5116
3316.9631	40.5039
3317.9272	40.4966
3318.8916	40.4893
3319.8557	40.4817
3320.8201	40.4734
3321.7842	40.4641
3322.7485	40.453
3323.7126	40.4398
3324.6770	40.4245
3325.6411	40.408
3326.6055	40.3918
3327.5696	40.3776
3328.5339	40.3665
3329.4980	40.3587
3330.4624	40.3532
3331.4265	40.348
3332.3909	40.3402
3333.3550	40.3273
3334.3193	40.3081
3335.2834	40.2841
3336.2478	40.2585
3337.2119	40.2355
3338.1763	40.2179
3339.1404	40.2062
3340.1047	40.1984
3341.0688	40.1914
3342.0332	40.1828
3342.9973	40.1718
3343.9617	40.1586
3344.9258	40.1442
3345.8901	40.1293
3346.8542	40.1142
3347.8186	40.0991
3348.7827	40.0845
3349.7471	40.0709
3350.7112	40.0582
3351.6755	40.0455
3352.6396	40.0314
3353.6040	40.0151
3354.5681	39.9971
3355.5325	39.9789
3356.4966	39.9621
3357.4609	39.9476
3358.4250	39.9349
3359.3894	39.9228
3360.3535	39.91
3361.3179	39.896
3362.2820	39.881
3363.2463	39.865
3364.2104	39.8477
3365.1748	39.8288
3366.1389	39.8084
3367.1033	39.7879
3368.0674	39.7689
3369.0317	39.753
3369.9958	39.7406
3370.9602	39.7305
3371.9243	39.7211
3372.8887	39.711
3373.8528	39.6993
3374.8171	39.686
3375.7813	39.6714
3376.7456	39.6566
3377.7097	39.6427
3378.6741	39.6311
3379.6382	39.6222
3380.6025	39.615
3381.5667	39.6064
3382.5310	39.5932
3383.4951	39.574
3384.4595	39.551
3385.4236	39.5297
3386.3879	39.5153
3387.3521	39.5099
3388.3164	39.5106
3389.2805	39.5111
3390.2449	39.5059
3391.2090	39.4928
3392.1733	39.4741
3393.1375	39.454
3394.1018	39.4358
3395.0659	39.4205
3396.0303	39.4072
3396.9944	39.3954
3397.9587	39.3858
3398.9229	39.3791
3399.8872	39.3754
3400.8513	39.3726
3401.8157	39.368
3402.7798	39.3599
3403.7441	39.3485
3404.7083	39.3356
3405.6726	39.3235
3406.6367	39.3138
3407.6011	39.3066
3408.5652	39.3016
3409.5295	39.2977
3410.4937	39.2936
3411.4580	39.2883
3412.4221	39.2822
3413.3865	39.277
3414.3506	39.2755
3415.3149	39.2793
3416.2791	39.2867
3417.2434	39.2925
3418.2075	39.2906
3419.1719	39.2773
3420.1360	39.2549
3421.1003	39.2305
3422.0645	39.2129
3423.0288	39.2068
3423.9929	39.2116
3424.9573	39.2217
3425.9214	39.2306
3426.8857	39.2344
3427.8499	39.2326
3428.8142	39.2277
3429.7783	39.2228
3430.7427	39.2198
3431.7068	39.2186
3432.6711	39.2185
3433.6353	39.2193
3434.5996	39.2218
3435.5637	39.2272
3436.5281	39.2351
3437.4922	39.2433
3438.4565	39.2491
3439.4207	39.2515
3440.3850	39.2525
3441.3491	39.2558
3442.3135	39.263
3443.2776	39.271
3444.2419	39.2722
3445.2061	39.2599
3446.1704	39.2338
3447.1345	39.2031
3448.0989	39.1817
3449.0630	39.1801
3450.0273	39.1985
3450.9915	39.2285
3451.9558	39.2584
3452.9199	39.2798
3453.8843	39.2916
3454.8484	39.2982
3455.8127	39.3053
3456.7769	39.3156
3457.7412	39.3274
3458.7053	39.3367
3459.6697	39.3406
3460.6338	39.3395
3461.5981	39.3367
3462.5623	39.336
3463.5266	39.3396
3464.4907	39.3468
3465.4551	39.3553
3466.4192	39.3635
3467.3835	39.3718
3468.3477	39.382
3469.3120	39.3958
3470.2761	39.4123
3471.2405	39.4275
3472.2046	39.4371
3473.1689	39.4401
3474.1331	39.4413
3475.0974	39.4488
3476.0615	39.4686
3477.0259	39.4987
3477.9900	39.5293
3478.9543	39.5471
3479.9185	39.5444
3480.8828	39.5245
3481.8469	39.5014
3482.8113	39.4902
3483.7754	39.4976
3484.7397	39.5186
3485.7039	39.5406
3486.6682	39.5533
3487.6323	39.5547
3488.5967	39.5526
3489.5608	39.5586
3490.5251	39.5792
3491.4893	39.6112
3492.4536	39.6435
3493.4177	39.6641
3494.3821	39.6684
3495.3462	39.6639
3496.3105	39.6655
3497.2747	39.6857
3498.2390	39.7242
3499.2031	39.7665
3500.1675	39.7911
3501.1316	39.7829
3502.0959	39.7453
3503.0601	39.7018
3504.0244	39.6809
3504.9885	39.6964
3505.9529	39.7393
3506.9170	39.7857
3507.8813	39.8125
3508.8455	39.8112
3509.8098	39.7925
3510.7739	39.7786
3511.7383	39.7866
3512.7024	39.8178
3513.6667	39.8607
3514.6309	39.9009
3515.5952	39.9314
3516.5593	39.9551
3517.5237	39.9804
3518.4878	40.0124
3519.4521	40.048
3520.4163	40.0777
3521.3806	40.093
3522.3447	40.0923
3523.3091	40.0821
3524.2732	40.0705
3525.2375	40.0606
3526.2017	40.049
3527.1660	40.0317
3528.1301	40.012
3529.0945	40.0017
3530.0586	40.0142
3531.0229	40.0542
3531.9871	40.1133
3532.9514	40.1736
3533.9155	40.2161
3534.8799	40.2309
3535.8440	40.2229
3536.8083	40.2103
3537.7725	40.2155
3538.7368	40.2524
3539.7009	40.3203
3540.6653	40.4035
3541.6294	40.4763
3542.5938	40.5102
3543.5579	40.4869
3544.5222	40.4118
3545.4863	40.32
3546.4507	40.2582
3547.4148	40.2546
3548.3792	40.3034
3549.3433	40.3734
3550.3076	40.4273
3551.2717	40.443
3552.2361	40.4262
3553.2002	40.4062
3554.1646	40.4145
3555.1287	40.462
3556.0930	40.5333
3557.0571	40.6008
3558.0215	40.6439
3558.9856	40.6647
3559.9500	40.688
3560.9141	40.7432
3561.8784	40.8393
3562.8425	40.9514
3563.8069	41.0228
3564.7710	40.9848
3565.7354	40.8039
3566.6995	40.5366
3567.6638	40.3136
3568.6279	40.2339
3569.5923	40.2995
3570.5564	40.4494
3571.5208	40.6156
3572.4849	40.7497
3573.4492	40.8315
3574.4133	40.8673
3575.3777	40.8778
3576.3418	40.8819
3577.3062	40.8861
3578.2703	40.8898
3579.2346	40.8983
3580.1987	40.9287
3581.1631	41.0006
3582.1272	41.1186
3583.0916	41.2588
3584.0557	41.3682
3585.0200	41.3787
3585.9841	41.248
3586.9485	41.0167
3587.9126	40.8089
3588.8770	40.734
3589.8411	40.8058
3590.8054	40.9619
3591.7695	41.1204
3592.7339	41.2182
3593.6980	41.2335
3594.6624	41.194
3595.6265	41.1536
3596.5908	41.1472
3597.5549	41.1675
3598.5193	41.183
3599.4834	41.1746
3600.4478	41.1584
3601.4119	41.1741
3602.3762	41.25
3603.3403	41.378
3604.3047	41.517
3605.2688	41.6143
3606.2332	41.6321
3607.1973	41.5719
3608.1616	41.477
3609.1257	41.4005
3610.0901	41.3679
3611.0542	41.3718
3612.0186	41.395
3612.9827	41.4322
3613.9470	41.4888
3614.9111	41.5636
3615.8755	41.6325
3616.8396	41.6497
3617.8040	41.5742
3618.7681	41.4134
3619.7324	41.2461
3620.6965	41.1764
3621.6609	41.2589
3622.6250	41.4793
3623.5894	41.7825
3624.5535	42.095
3625.5178	42.3244
3626.4819	42.3605
3627.4463	42.1273
3628.4104	41.6993
3629.3748	41.3114
3630.3389	41.1441
3631.3032	41.1903
3632.2673	41.3455
3633.2317	41.5142
3634.1958	41.6446
3635.1602	41.7271
3636.1243	41.7788
3637.0886	41.8208
3638.0527	41.8632
3639.0171	41.9054
3639.9812	41.9487
3640.9456	42.0077
3641.9097	42.1071
3642.8740	42.2659
3643.8381	42.4811
3644.8025	42.714
3645.7666	42.8783
3646.7310	42.8357
3647.6951	42.4648
3648.6594	41.8546
3649.6235	41.3501
3650.5879	41.1957
3651.5520	41.3428
3652.5164	41.6247
3653.4805	41.8966
3654.4448	42.063
3655.4089	42.0893
3656.3733	42.0171
3657.3374	41.9413
3658.3018	41.9357
3659.2659	42.0055
3660.2302	42.108
3661.1943	42.2018
3662.1587	42.2804
3663.1228	42.3721
3664.0872	42.5086
3665.0513	42.6896
3666.0156	42.8674
3666.9797	42.9592
3667.9441	42.8938
3668.9082	42.6888
3669.8726	42.4797
3670.8367	42.4075
3671.8010	42.4869
3672.7651	42.6066
3673.7295	42.6103
3674.6936	42.4001
3675.6580	42.0461
3676.6221	41.7569
3677.5864	41.6731
3678.5505	41.7712
3679.5149	41.9544
3680.4790	42.1456
3681.4434	42.3174
3682.4075	42.4816
3683.3718	42.6621
3684.3359	42.8643
3685.3003	43.0565
3686.2644	43.1661
3687.2288	43.1003
3688.1929	42.8147
3689.1572	42.4032
3690.1213	42.0641
3691.0857	41.9237
3692.0498	41.9636
3693.0142	42.1007
3693.9783	42.2653
3694.9426	42.4228
3695.9067	42.5648
3696.8711	42.6906
3697.8352	42.7908
3698.7996	42.8412
3699.7637	42.8144
3700.7280	42.7076
3701.6921	42.5654
3702.6565	42.4655
3703.6206	42.4691
3704.5850	42.5881
3705.5491	42.7896
3706.5134	43.0153
3707.4775	43.1901
3708.4419	43.2264
3709.4060	43.0533
3710.3704	42.6903
3711.3345	42.2926
3712.2988	42.046
3713.2629	42.0183
3714.2273	42.1599
3715.1914	42.3845
3716.1558	42.6178
3717.1199	42.8083
3718.0842	42.9285
3719.0483	42.9762
3720.0127	42.9704
3720.9768	42.9356
3721.9412	42.8831
3722.9053	42.8074
3723.8696	42.7057
3724.8337	42.6002
3725.7981	42.5373
3726.7622	42.5596
3727.7266	42.6786
3728.6907	42.8722
3729.6550	43.0968
3730.6191	43.2962
3731.5835	43.4035
3732.5476	43.345
3733.5120	43.073
3734.4761	42.6359
3735.4404	42.2071
3736.4045	41.9711
3737.3689	41.9918
3738.3330	42.2202
3739.2974	42.5664
3740.2615	42.9347
3741.2258	43.2204
3742.1899	43.3121
3743.1543	43.1486
3744.1184	42.8233
3745.0828	42.5658
3746.0469	42.5315
3747.0112	42.6829
3747.9753	42.86
3748.9397	42.8772
3749.9038	42.6266
3750.8682	42.2116
3751.8323	41.9035
3752.7966	41.8672
3753.7607	42.0563
3754.7251	42.3359
3755.6892	42.5803
3756.6536	42.7033
3757.6177	42.6794
3758.5820	42.5624
3759.5461	42.4555
3760.5105	42.4356
3761.4746	42.5091
3762.4390	42.6328
3763.4031	42.7541
3764.3674	42.836
3765.3315	42.8648
3766.2959	42.8434
3767.2600	42.7789
3768.2244	42.6762
3769.1885	42.547
3770.1528	42.4238
3771.1169	42.355
3772.0813	42.3774
3773.0454	42.4931
3774.0098	42.6683
3774.9739	42.8469
3775.9382	42.9667
3776.9023	42.9813
3777.8667	42.8886
3778.8308	42.7435
3779.7952	42.6249
3780.7593	42.5786
3781.7236	42.5951
3782.6877	42.6338
3783.6521	42.6569
3784.6162	42.6496
3785.5806	42.6217
3786.5447	42.596
3787.5090	42.5928
3788.4731	42.6229
3789.4375	42.687
3790.4016	42.7769
3791.3660	42.8757
3792.3301	42.9599
3793.2944	43.0095
3794.2585	43.0211
3795.2229	43.0149
3796.1870	43.0214
3797.1514	43.0502
3798.1155	43.0699
3799.0798	43.0198
3800.0439	42.8608
3801.0083	42.6348
3801.9724	42.4545
3802.9368	42.403
3803.9009	42.4621
3804.8652	42.5392
3805.8296	42.5407
3806.7937	42.4449
3807.7581	42.3303
3808.7222	42.3127
3809.6865	42.4457
3810.6506	42.6943
3811.6150	42.9726
3812.5791	43.1833
3813.5435	43.2519
3814.5076	43.1709
3815.4719	43.0221
3816.4360	42.9153
3817.4004	42.8871
3818.3645	42.8749
3819.3289	42.783
3820.2930	42.5795
3821.2573	42.3441
3822.2214	42.2011
3823.1858	42.2056
3824.1499	42.322
3825.1143	42.4796
3826.0784	42.6211
3827.0427	42.7211
3828.0068	42.7825
3828.9712	42.8216
3829.9353	42.8532
3830.8997	42.8853
3831.8638	42.9229
3832.8281	42.9699
3833.7922	43.0223
3834.7566	43.0583
3835.7207	43.0377
3836.6851	42.9236
3837.6492	42.72
3838.6135	42.4903
3839.5776	42.3158
3840.5420	42.2347
3841.5061	42.2281
3842.4705	42.2556
3843.4346	42.2942
3844.3989	42.3532
3845.3630	42.4627
3846.3274	42.649
3847.2915	42.9169
3848.2559	43.2434
3849.2200	43.5728
3850.1843	43.801
3851.1484	43.7614
3852.1128	43.3016
3853.0769	42.5295
3854.0413	41.8721
3855.0054	41.6227
3855.9697	41.7281
3856.9338	42.02
3857.8982	42.3697
3858.8623	42.6953
3859.8267	42.9371
3860.7908	43.0482
3861.7551	43.0119
3862.7192	42.8708
3863.6836	42.7213
3864.6477	42.6514
3865.6121	42.6824
3866.5762	42.7704
3867.5405	42.8442
3868.5046	42.8427
3869.4690	42.7426
3870.4331	42.5722
3871.3975	42.3978
3872.3616	42.2854
3873.3259	42.2706
3874.2900	42.3533
3875.2544	42.507
3876.2185	42.6875
3877.1829	42.8421
3878.1470	42.9238
3879.1113	42.9139
3880.0754	42.8379
3881.0398	42.7489
3882.0039	42.6831
3882.9683	42.6344
3883.9324	42.5776
3884.8967	42.5127
3885.8608	42.4784
3886.8252	42.5159
3887.7893	42.6219
3888.7537	42.7384
3889.7178	42.7835
3890.6821	42.7085
3891.6462	42.5532
3892.6106	42.4327
3893.5747	42.4422
3894.5391	42.5883
3895.5032	42.8069
3896.4675	43.0128
3897.4316	43.1355
3898.3960	43.1422
3899.3601	43.0474
3900.3245	42.8929
3901.2886	42.7105
3902.2529	42.5107
3903.2170	42.31
3904.1814	42.152
3905.1455	42.084
3906.1099	42.1196
3907.0740	42.2322
3908.0383	42.3773
3909.0024	42.5165
3909.9668	42.6313
3910.9309	42.7236
3911.8953	42.8051
3912.8594	42.8803
3913.8237	42.9357
3914.7878	42.9436
3915.7522	42.882
3916.7163	42.7606
3917.6807	42.6285
3918.6448	42.545
3919.6091	42.5378
3920.5732	42.5875
3921.5376	42.6464
3922.5017	42.6698
3923.4661	42.6437
3924.4302	42.5949
3925.3945	42.5708
3926.3586	42.6015
3927.3230	42.6778
3928.2871	42.7583
3929.2515	42.7937
3930.2156	42.7549
3931.1799	42.653
3932.1440	42.5359
3933.1084	42.4566
3934.0725	42.4413
3935.0369	42.4845
3936.0010	42.5645
3936.9653	42.6578
3937.9294	42.7436
3938.8938	42.8023
3939.8579	42.8175
3940.8223	42.7838
3941.7864	42.7163
3942.7507	42.6486
3943.7148	42.6139
3944.6792	42.6227
3945.6433	42.657
3946.6077	42.6831
3947.5718	42.6737
3948.5361	42.6268
3949.5002	42.5672
3950.4646	42.5285
3951.4287	42.5288
3952.3931	42.5619
3953.3572	42.6066
3954.3215	42.6433
3955.2856	42.6645
3956.2500	42.674
3957.2141	42.6794
3958.1785	42.6831
3959.1426	42.6808
3960.1069	42.6674
3961.0710	42.644
3962.0354	42.6193
3962.9995	42.605
3963.9639	42.6076
3964.9280	42.6243
3965.8923	42.6459
3966.8564	42.6628
3967.8208	42.6702
3968.7849	42.6695
3969.7493	42.665
3970.7134	42.6602
3971.6777	42.6547
3972.6418	42.6461
3973.6062	42.6332
3974.5703	42.6189
3975.5347	42.6087
3976.4988	42.6079
3977.4631	42.6168
3978.4272	42.6308
3979.3916	42.6426
3980.3557	42.6466
3981.3201	42.6421
3982.2842	42.6336
3983.2485	42.628
3984.2126	42.6301
3985.1770	42.6398
3986.1411	42.6526
3987.1055	42.6623
3988.0696	42.6643
3989.0339	42.6582
3989.9980	42.6471
3990.9624	42.6354
3991.9265	42.626
3992.8909	42.6193
3993.8550	42.614
3994.8193	42.6099
3995.7834	42.608
3996.7478	42.6097
3997.7119	42.6153
3998.6763	42.6228
3999.6404	42.6293
4000.6047	42.633
4001.5688	42.6351
4002.5332	42.6379
4003.4973	42.6431
4004.4617	42.6495
4005.4258	42.6533
4006.3901	42.6511
4007.3542	42.6424
4008.3186	42.63
4009.2827	42.6187
4010.2471	42.6126
4011.2112	42.6126
4012.1755	42.6174
4013.1396	42.6244
4014.1040	42.6308
4015.0681	42.6341
4016.0325	42.6329
4016.9966	42.6271
4017.9609	42.6187
4018.9250	42.6116
4019.8894	42.6092
4020.8535	42.6126
4021.8179	42.6196
4022.7820	42.6255
4023.7463	42.6265
4024.7104	42.6217
4025.6748	42.6136
4026.6389	42.6058
4027.6033	42.6008
4028.5674	42.5988
4029.5317	42.5982
4030.4958	42.5977
4031.4602	42.5974
4032.4243	42.5981
4033.3887	42.6
4034.3528	42.602
4035.3171	42.6025
4036.2813	42.6012
4037.2456	42.5997
4038.2097	42.6008
4039.1741	42.6057
4040.1382	42.6127
4041.1025	42.6173
4042.0667	42.6147
4043.0310	42.6034
4043.9951	42.5864
4044.9595	42.5701
4045.9236	42.5605
4046.8879	42.5603
4047.8521	42.5671
4048.8164	42.5758
4049.7805	42.5815
4050.7449	42.5817
4051.7090	42.5776
4052.6733	42.5724
4053.6375	42.569
4054.6018	42.5687
4055.5659	42.5704
4056.5303	42.5719
4057.4944	42.5709
4058.4587	42.5668
4059.4229	42.5606
4060.3872	42.5547
4061.3513	42.5511
4062.3157	42.5509
4063.2798	42.5536
4064.2441	42.5579
4065.2083	42.5621
4066.1726	42.5647
4067.1367	42.5653
4068.1011	42.5639
4069.0652	42.561
4070.0295	42.5574
4070.9937	42.554
4071.9580	42.552
4072.9221	42.5523
4073.8865	42.555
4074.8506	42.5586
4075.8149	42.561
4076.7791	42.5602
4077.7434	42.5555
4078.7075	42.5485
4079.6719	42.542
4080.6360	42.5389
4081.6003	42.5406
4082.5645	42.5459
4083.5288	42.5521
4084.4929	42.5559
4085.4573	42.5559
4086.4214	42.5523
4087.3857	42.5472
4088.3499	42.5428
4089.3142	42.5408
4090.2783	42.5411
4091.2427	42.5428
4092.2068	42.5444
4093.1711	42.5448
4094.1353	42.5435
4095.0996	42.5405
4096.0640	42.5366
4097.0278	42.5331
4097.9922	42.5316
4098.9565	42.5332
4099.9209	42.5378
4100.8848	42.5433
4101.8491	42.5466
4102.8135	42.5453
4103.7778	42.5386
4104.7417	42.5286
4105.7061	42.5189
4106.6704	42.5129
4107.6348	42.5119
4108.5986	42.5145
4109.5630	42.518
4110.5273	42.5202
4111.4917	42.5203
4112.4556	42.5189
4113.4199	42.5173
4114.3843	42.5162
4115.3486	42.5155
4116.3125	42.5146
4117.2769	42.5128
4118.2412	42.5102
4119.2056	42.5072
4120.1694	42.5047
4121.1338	42.5031
4122.0981	42.5026
4123.0625	42.5025
4124.0264	42.502
4124.9907	42.5006
4125.9551	42.4982
4126.9194	42.4957
4127.8833	42.4943
4128.8477	42.4943
4129.8120	42.4952
4130.7764	42.4955
4131.7402	42.4938
4132.7046	42.4894
4133.6689	42.4834
4134.6333	42.4774
4135.5972	42.4731
4136.5615	42.4712
4137.5259	42.4714
4138.4902	42.4728
4139.4541	42.4743
4140.4185	42.4756
4141.3828	42.4764
4142.3472	42.4765
4143.3110	42.4756
4144.2754	42.4738
4145.2397	42.4711
4146.2041	42.468
4147.1680	42.4648
4148.1323	42.4619
4149.0967	42.4591
4150.0610	42.4565
4151.0249	42.4543
4151.9893	42.4527
4152.9536	42.4519
4153.9180	42.4515
4154.8818	42.4511
4155.8462	42.4502
4156.8105	42.4485
4157.7749	42.4465
4158.7388	42.4444
4159.7031	42.4427
4160.6675	42.441
4161.6318	42.4393
4162.5957	42.4371
4163.5601	42.4347
4164.5244	42.4326
4165.4888	42.4315
4166.4526	42.4316
4167.4170	42.4329
4168.3813	42.4347
4169.3457	42.4359
4170.3096	42.4358
4171.2739	42.4336
4172.2383	42.4292
4173.2026	42.4232
4174.1665	42.4166
4175.1309	42.4106
4176.0952	42.4066
4177.0596	42.4051
4178.0234	42.4057
4178.9878	42.4073
4179.9521	42.4085
4180.9165	42.4083
4181.8804	42.4067
4182.8447	42.4045
4183.8091	42.4026
4184.7734	42.4016
4185.7373	42.4014
4186.7017	42.4012
4187.6660	42.4006
4188.6304	42.3996
4189.5942	42.3983
4190.5586	42.3972
4191.5229	42.3961
4192.4873	42.3941
4193.4512	42.3908
4194.4155	42.3864
4195.3799	42.382
4196.3442	42.3789
4197.3081	42.3779
4198.2725	42.3786
4199.2368	42.3799
4200.2012	42.3805
4201.1650	42.3796
4202.1294	42.3778
4203.0938	42.3763
4204.0581	42.3759
4205.0220	42.3766
4205.9863	42.3776
4206.9507	42.3774
4207.9150	42.3749
4208.8789	42.3701
4209.8433	42.3641
4210.8076	42.3586
4211.7720	42.3549
4212.7358	42.3534
4213.7002	42.3533
4214.6646	42.3535
4215.6289	42.3529
4216.5928	42.3512
4217.5571	42.3493
4218.5215	42.3482
4219.4858	42.3483
4220.4497	42.3493
4221.4141	42.3503
4222.3784	42.3502
4223.3428	42.3489
4224.3066	42.3465
4225.2710	42.344
4226.2354	42.3418
4227.1997	42.3402
4228.1636	42.3389
4229.1279	42.3376
4230.0923	42.3358
4231.0566	42.3333
4232.0205	42.33
4232.9849	42.3256
4233.9492	42.3204
4234.9136	42.3149
4235.8774	42.3098
4236.8418	42.3062
4237.8062	42.3045
4238.7705	42.3048
4239.7344	42.3063
4240.6987	42.3079
4241.6631	42.3085
4242.6274	42.3075
4243.5913	42.3049
4244.5557	42.3014
4245.5200	42.2977
4246.4844	42.2946
4247.4482	42.2922
4248.4126	42.2905
4249.3770	42.2889
4250.3413	42.2876
4251.3052	42.2865
4252.2695	42.2861
4253.2339	42.2865
4254.1982	42.2878
4255.1621	42.2892
4256.1265	42.2901
4257.0908	42.2901
4258.0552	42.2889
4259.0190	42.2867
4259.9834	42.284
4260.9478	42.2814
4261.9121	42.2793
4262.8760	42.278
4263.8403	42.2775
4264.8047	42.2774
4265.7690	42.2771
4266.7329	42.2758
4267.6973	42.2732
4268.6616	42.2695
4269.6260	42.2656
4270.5898	42.2625
4271.5542	42.261
4272.5186	42.2613
4273.4829	42.2625
4274.4468	42.2635
4275.4111	42.2632
4276.3755	42.261
4277.3398	42.2572
4278.3037	42.2528
4279.2681	42.2489
4280.2324	42.2464
4281.1968	42.2454
4282.1606	42.2456
4283.1250	42.2459
4284.0894	42.2457
4285.0537	42.2449
4286.0176	42.2439
4286.9819	42.2434
4287.9463	42.2437
4288.9106	42.2444
4289.8745	42.2449
4290.8389	42.2444
4291.8032	42.2426
4292.7676	42.2399
4293.7314	42.2372
4294.6958	42.2349
4295.6602	42.2333
4296.6245	42.2319
4297.5884	42.2304
4298.5527	42.2283
4299.5171	42.2257
4300.4814	42.2226
4301.4453	42.2195
4302.4097	42.2165
4303.3740	42.2139
4304.3384	42.2119
4305.3022	42.2107
4306.2666	42.2101
4307.2310	42.2098
4308.1953	42.2093
4309.1592	42.208
4310.1235	42.2058
4311.0879	42.2027
4312.0522	42.1991
4313.0161	42.1958
4313.9805	42.1935
4314.9448	42.1923
4315.9092	42.192
4316.8730	42.1915
4317.8374	42.1901
4318.8018	42.1874
4319.7661	42.1835
4320.7300	42.1796
4321.6943	42.1768
4322.6587	42.1756
4323.6230	42.1758
4324.5869	42.1766
4325.5513	42.1769
4326.5156	42.1759
4327.4800	42.1736
4328.4438	42.1705
4329.4082	42.1677
4330.3726	42.1663
4331.3369	42.1666
4332.3008	42.1684
4333.2651	42.1709
4334.2295	42.1734
4335.1938	42.1753
4336.1577	42.1766
4337.1221	42.1775
4338.0864	42.1779
4339.0508	42.1777
4340.0146	42.1765
4340.9790	42.1741
4341.9434	42.171
4342.9077	42.1683
4343.8716	42.167
4344.8359	42.1674
4345.8003	42.1694
4346.7646	42.1721
4347.7285	42.1748
4348.6929	42.1772
4349.6572	42.1793
4350.6216	42.181
4351.5854	42.1816
4352.5498	42.1805
4353.5142	42.1771
4354.4785	42.1719
4355.4424	42.166
4356.4067	42.1609
4357.3711	42.1576
4358.3354	42.1561
4359.2993	42.1558
4360.2637	42.1554
4361.2280	42.1546
4362.1924	42.1534
4363.1563	42.1522
4364.1206	42.1516
4365.0850	42.1513
4366.0493	42.1509
4367.0132	42.1498
4367.9775	42.148
4368.9419	42.1462
4369.9063	42.1447
4370.8701	42.1439
4371.8345	42.1435
4372.7988	42.143
4373.7632	42.1419
4374.7271	42.1402
4375.6914	42.1384
4376.6558	42.1367
4377.6201	42.1354
4378.5840	42.1344
4379.5483	42.1336
4380.5127	42.133
4381.4771	42.1326
4382.4409	42.1323
4383.4053	42.1316
4384.3696	42.1302
4385.3340	42.1278
4386.2979	42.1247
4387.2622	42.1215
4388.2266	42.1187
4389.1909	42.1165
4390.1548	42.1145
4391.1191	42.1119
4392.0835	42.1084
4393.0479	42.1041
4394.0117	42.0998
4394.9761	42.0963
4395.9404	42.0948
4396.9048	42.0953
4397.8687	42.0977
4398.8330	42.1009
4399.7974	42.1038
4400.7617	42.1052
4401.7256	42.1048
4402.6899	42.1029
4403.6543	42.1007
4404.6187	42.099
4405.5825	42.0988
4406.5469	42.1
4407.5112	42.102
4408.4756	42.104
4409.4395	42.1054
4410.4038	42.1058
4411.3682	42.1051
4412.3325	42.1037
4413.2964	42.1018
4414.2607	42.0999
4415.2251	42.0981
4416.1895	42.0969
4417.1533	42.0964
4418.1177	42.0964
4419.0820	42.0966
4420.0464	42.0966
4421.0103	42.096
4421.9746	42.0944
4422.9390	42.0918
4423.9033	42.0884
4424.8672	42.0849
4425.8315	42.0818
4426.7959	42.0797
4427.7603	42.0787
4428.7241	42.079
4429.6885	42.0804
4430.6528	42.0827
4431.6172	42.0859
4432.5811	42.0896
4433.5454	42.093
4434.5098	42.0951
4435.4741	42.095
4436.4380	42.0924
4437.4023	42.0879
4438.3667	42.0828
4439.3311	42.0786
4440.2949	42.0761
4441.2593	42.0757
4442.2236	42.0767
4443.1880	42.0786
4444.1519	42.0806
4445.1162	42.0826
4446.0806	42.0846
4447.0449	42.0863
4448.0088	42.0877
4448.9731	42.0881
4449.9375	42.0873
4450.9019	42.0852
4451.8657	42.0823
4452.8301	42.0796
4453.7944	42.0778
4454.7588	42.0776
4455.7227	42.0787
4456.6870	42.0801
4457.6514	42.0806
4458.6157	42.0794
4459.5796	42.0761
4460.5439	42.0716
4461.5083	42.0671
4462.4727	42.0638
4463.4365	42.0623
4464.4009	42.0626
4465.3652	42.0637
4466.3296	42.0646
4467.2935	42.0646
4468.2578	42.0638
4469.2222	42.0629
4470.1865	42.0628
4471.1504	42.0638
4472.1147	42.0653
4473.0791	42.0663
4474.0435	42.0658
4475.0073	42.0632
4475.9717	42.0589
4476.9360	42.0537
4477.9004	42.0488
4478.8643	42.0452
4479.8286	42.0435
4480.7930	42.0436
4481.7573	42.0445
4482.7212	42.0454
4483.6855	42.0455
4484.6499	42.0449
4485.6143	42.0441
4486.5781	42.0439
4487.5425	42.0445
4488.5068	42.0452
4489.4712	42.045
4490.4351	42.0428
4491.3994	42.0389
4492.3638	42.0342
4493.3281	42.0303
4494.2920	42.0279
4495.2563	42.0269
4496.2207	42.0264
4497.1851	42.0253
4498.1489	42.0233
4499.1133	42.021
4500.0776	42.019
4501.0420	42.0182
4502.0059	42.0185
4502.9702	42.0197
4503.9346	42.0213
4504.8989	42.0231
4505.8628	42.0248
4506.8271	42.0258
4507.7915	42.0257
4508.7559	42.0241
4509.7197	42.0213
4510.6841	42.018
4511.6484	42.0152
4512.6128	42.0134
4513.5767	42.0127
4514.5410	42.0122
4515.5054	42.011
4516.4697	42.0087
4517.4336	42.0056
4518.3979	42.0027
4519.3623	42.0014
4520.3267	42.0022
4521.2905	42.0046
4522.2549	42.0075
4523.2192	42.0089
4524.1836	42.0079
4525.1475	42.0041
4526.1118	41.9984
4527.0762	41.9923
4528.0405	41.9876
4529.0044	41.985
4529.9688	41.9847
4530.9331	41.9858
4531.8975	41.9872
4532.8613	41.9874
4533.8257	41.9857
4534.7900	41.9822
4535.7544	41.9778
4536.7183	41.9738
4537.6826	41.9715
4538.6470	41.971
4539.6113	41.9717
4540.5752	41.9722
4541.5396	41.9711
4542.5039	41.968
4543.4683	41.9632
4544.4321	41.9583
4545.3965	41.9546
4546.3608	41.953
4547.3252	41.9535
4548.2891	41.9554
4549.2534	41.9577
4550.2178	41.9596
4551.1821	41.9605
4552.1460	41.9606
4553.1104	41.9599
4554.0747	41.9584
4555.0391	41.9558
4556.0029	41.9519
4556.9673	41.947
4557.9316	41.9418
4558.8960	41.9374
4559.8599	41.9346
4560.8242	41.9338
4561.7886	41.9342
4562.7529	41.9349
4563.7168	41.9347
4564.6812	41.9332
4565.6455	41.9308
4566.6099	41.9281
4567.5737	41.926
4568.5381	41.9247
4569.5024	41.9241
4570.4668	41.9236
4571.4307	41.9224
4572.3950	41.9198
4573.3594	41.9157
4574.3237	41.9107
4575.2876	41.9059
4576.2520	41.9027
4577.2163	41.9016
4578.1807	41.9025
4579.1445	41.9044
4580.1089	41.9059
4581.0732	41.9057
4582.0376	41.9035
4583.0015	41.8997
4583.9658	41.8953
4584.9302	41.8917
4585.8945	41.8897
4586.8584	41.8895
4587.8228	41.8902
4588.7871	41.8901
4589.7515	41.888
4590.7153	41.8833
4591.6797	41.8773
4592.6440	41.8721
4593.6084	41.8697
4594.5723	41.8707
4595.5366	41.8741
4596.5010	41.8775
4597.4653	41.8785
4598.4292	41.8758
4599.3936	41.8698
4600.3579	41.8617
4601.3223	41.8535
4602.2861	41.8469
4603.2505	41.843
4604.2148	41.8422
4605.1792	41.844
4606.1431	41.8474
4607.1074	41.8507
4608.0718	41.8524
4609.0361	41.8517
4610.0000	41.8489
4610.9644	41.8451
4611.9287	41.8413
4612.8931	41.8381
4613.8569	41.8354
4614.8213	41.833
4615.7856	41.831
4616.7500	41.8294
4617.7139	41.8284
4618.6782	41.8278
4619.6426	41.8267
4620.6069	41.8246
4621.5708	41.8213
4622.5352	41.8173
4623.4995	41.8136
4624.4639	41.8107
4625.4277	41.809
4626.3921	41.808
4627.3564	41.8074
4628.3208	41.8067
4629.2847	41.8059
4630.2490	41.8051
4631.2134	41.8041
4632.1777	41.8029
4633.1416	41.8013
4634.1060	41.7989
4635.0703	41.7955
4636.0347	41.791
4636.9985	41.7863
4637.9629	41.7825
4638.9272	41.781
4639.8916	41.7823
4640.8555	41.7855
4641.8198	41.7883
4642.7842	41.7882
4643.7485	41.784
4644.7124	41.7764
4645.6768	41.7679
4646.6411	41.7611
4647.6055	41.7575
4648.5693	41.7569
4649.5337	41.7576
4650.4980	41.7581
4651.4624	41.7576
4652.4263	41.7562
4653.3906	41.7551
4654.3550	41.7546
4655.3193	41.7549
4656.2832	41.7556
4657.2476	41.7561
4658.2119	41.7564
4659.1763	41.7563
4660.1401	41.7559
4661.1045	41.7549
4662.0688	41.753
4663.0332	41.7503
4663.9971	41.7473
4664.9614	41.7447
4665.9258	41.7432
4666.8901	41.7432
4667.8540	41.744
4668.8184	41.7447
4669.7827	41.7444
4670.7471	41.7428
4671.7109	41.74
4672.6753	41.7368
4673.6396	41.7338
4674.6040	41.7315
4675.5679	41.7297
4676.5322	41.7281
4677.4966	41.726
4678.4609	41.7235
4679.4248	41.7208
4680.3892	41.7186
4681.3535	41.7174
4682.3179	41.7171
4683.2817	41.717
4684.2461	41.7165
4685.2104	41.7151
4686.1748	41.7134
4687.1387	41.7119
4688.1030	41.7115
4689.0674	41.7121
4690.0317	41.7133
4690.9956	41.7148
4691.9600	41.7162
4692.9243	41.7178
4693.8887	41.7197
4694.8525	41.7218
4695.8169	41.7233
4696.7813	41.7229
4697.7456	41.7197
4698.7095	41.7138
4699.6738	41.7057
4700.6382	41.697
4701.6025	41.6894
4702.5664	41.6845
4703.5308	41.6829
4704.4951	41.6842
4705.4595	41.687
4706.4233	41.6895
4707.3877	41.6902
4708.3521	41.6883
4709.3164	41.6845
4710.2803	41.6798
4711.2446	41.6758
4712.2090	41.6734
4713.1733	41.673
4714.1372	41.6744
4715.1016	41.6766
4716.0659	41.6786
4717.0303	41.6794
4717.9941	41.6788
4718.9585	41.6772
4719.9229	41.6754
4720.8872	41.6737
4721.8511	41.6722
4722.8154	41.6703
4723.7798	41.6674
4724.7441	41.6632
4725.7080	41.6584
4726.6724	41.654
4727.6367	41.651
4728.6011	41.6496
4729.5649	41.6494
4730.5293	41.6496
4731.4937	41.6494
4732.4580	41.6485
4733.4219	41.6468
4734.3862	41.6449
4735.3506	41.6431
4736.3149	41.6417
4737.2788	41.6408
4738.2432	41.6401
4739.2075	41.6394
4740.1719	41.639
4741.1357	41.6393
4742.1001	41.6407
4743.0645	41.6429
4744.0288	41.6453
4744.9927	41.6465
4745.9570	41.6456
4746.9214	41.6428
4747.8857	41.6394
4748.8496	41.6373
4749.8140	41.6377
4750.7783	41.6405
4751.7427	41.6442
4752.7065	41.6471
4753.6709	41.648
4754.6353	41.6474
4755.5996	41.6465
4756.5635	41.6467
4757.5278	41.6485
4758.4922	41.6509
4759.4565	41.6525
4760.4204	41.6522
4761.3848	41.6497
4762.3491	41.6457
4763.3135	41.6417
4764.2773	41.6391
4765.2417	41.6385
4766.2061	41.6396
4767.1704	41.6414
4768.1343	41.6428
4769.0986	41.6431
4770.0630	41.6422
4771.0273	41.6406
4771.9912	41.639
4772.9556	41.6378
4773.9199	41.6368
4774.8843	41.6355
4775.8481	41.6335
4776.8125	41.6311
4777.7769	41.629
4778.7412	41.6285
4779.7051	41.6301
4780.6694	41.6334
4781.6338	41.637
4782.5981	41.6393
4783.5620	41.6391
4784.5264	41.636
4785.4907	41.631
4786.4551	41.6255
4787.4189	41.6211
4788.3833	41.6187
4789.3477	41.6184
4790.3120	41.6195
4791.2759	41.6211
4792.2402	41.6221
4793.2046	41.6219
4794.1689	41.6202
4795.1328	41.6171
4796.0972	41.613
4797.0615	41.6083
4798.0259	41.604
4798.9897	41.6009
4799.9541	41.5996
4800.9185	41.6
4801.8828	41.601
4802.8467	41.6012
4803.8110	41.5996
4804.7754	41.596
4805.7397	41.5912
4806.7036	41.5864
4807.6680	41.5827
4808.6323	41.5803
4809.5967	41.5787
4810.5605	41.5771
4811.5249	41.575
4812.4893	41.5724
4813.4536	41.57
4814.4175	41.5685
4815.3818	41.5685
4816.3462	41.5699
4817.3105	41.5721
4818.2744	41.5737
4819.2388	41.5737
4820.2031	41.5713
4821.1675	41.5669
4822.1313	41.5616
4823.0957	41.5567
4824.0601	41.5532
4825.0244	41.5512
4825.9883	41.5496
4826.9526	41.5472
4827.9170	41.543
4828.8813	41.5374
4829.8452	41.5318
4830.8096	41.5278
4831.7739	41.5266
4832.7383	41.5281
4833.7021	41.531
4834.6665	41.5336
4835.6309	41.5346
4836.5952	41.5335
4837.5591	41.5307
4838.5234	41.5272
4839.4878	41.5239
4840.4521	41.5213
4841.4160	41.5195
4842.3804	41.5181
4843.3447	41.5168
4844.3091	41.5154
4845.2729	41.5138
4846.2373	41.512
4847.2017	41.5101
4848.1660	41.5085
4849.1299	41.5072
4850.0942	41.5061
4851.0586	41.5051
4852.0229	41.5041
4852.9868	41.5036
4853.9512	41.5038
4854.9155	41.5049
4855.8799	41.5063
4856.8438	41.5069
4857.8081	41.5056
4858.7725	41.502
4859.7368	41.4972
4860.7007	41.4931
4861.6650	41.4913
4862.6294	41.4924
4863.5938	41.4952
4864.5576	41.498
4865.5220	41.4991
4866.4863	41.4977
4867.4507	41.4943
4868.4146	41.4902
4869.3789	41.4863
4870.3433	41.4834
4871.3076	41.4813
4872.2715	41.4798
4873.2358	41.4787
4874.2002	41.478
4875.1646	41.4778
4876.1284	41.4783
4877.0928	41.479
4878.0571	41.4792
4879.0215	41.478
4879.9854	41.4751
4880.9497	41.4708
4881.9141	41.4664
4882.8784	41.463
4883.8423	41.4613
4884.8066	41.4609
4885.7710	41.4608
4886.7354	41.4598
4887.6992	41.4578
4888.6636	41.4551
4889.6279	41.4524
4890.5923	41.4502
4891.5562	41.4483
4892.5205	41.4466
4893.4849	41.4449
4894.4492	41.4436
4895.4131	41.4427
4896.3774	41.4424
4897.3418	41.4419
4898.3062	41.4406
4899.2700	41.438
4900.2344	41.4341
4901.1987	41.4296
4902.1631	41.425
4903.1270	41.421
4904.0913	41.4178
4905.0557	41.4154
4906.0200	41.414
4906.9839	41.4133
4907.9482	41.4134
4908.9126	41.4137
4909.8770	41.414
4910.8408	41.414
4911.8052	41.4141
4912.7695	41.4146
4913.7339	41.4157
4914.6978	41.4172
4915.6621	41.4181
4916.6265	41.417
4917.5908	41.4133
4918.5547	41.4074
4919.5190	41.401
4920.4834	41.3961
4921.4478	41.3943
4922.4116	41.3953
4923.3760	41.3972
4924.3403	41.3976
4925.3047	41.3949
4926.2686	41.3892
4927.2329	41.3824
4928.1973	41.3769
4929.1616	41.3741
4930.1255	41.3739
4931.0898	41.3753
4932.0542	41.3767
4933.0186	41.3772
4933.9824	41.3767
4934.9468	41.3753
4935.9111	41.3732
4936.8755	41.3706
4937.8394	41.3678
4938.8037	41.3656
4939.7681	41.3647
4940.7324	41.3654
4941.6963	41.3673
4942.6606	41.369
4943.6250	41.369
4944.5894	41.3664
4945.5532	41.3616
4946.5176	41.356
4947.4819	41.3517
4948.4463	41.3501
4949.4102	41.3514
4950.3745	41.3544
4951.3389	41.3571
4952.3032	41.3581
4953.2671	41.3573
4954.2314	41.3559
4955.1958	41.3553
4956.1602	41.3563
4957.1240	41.3582
4958.0884	41.3591
4959.0527	41.3573
4960.0171	41.3523
4960.9810	41.3453
4961.9453	41.3383
4962.9097	41.3331
4963.8740	41.3303
4964.8379	41.3294
4965.8022	41.3288
4966.7666	41.3276
4967.7310	41.3259
4968.6948	41.3244
4969.6592	41.3241
4970.6235	41.3252
4971.5879	41.3266
4972.5518	41.3269
4973.5161	41.3252
4974.4805	41.3218
4975.4448	41.318
4976.4087	41.3153
4977.3730	41.3145
4978.3374	41.3154
4979.3018	41.3173
4980.2656	41.319
4981.2300	41.3203
4982.1943	41.3208
4983.1587	41.3205
4984.1226	41.3189
4985.0869	41.3161
4986.0513	41.3128
4987.0156	41.3099
4987.9795	41.3084
4988.9438	41.3081
4989.9082	41.3074
4990.8726	41.3046
4991.8364	41.2986
4992.8008	41.2902
4993.7651	41.2813
4994.7295	41.274
4995.6934	41.2693
4996.6577	41.2669
4997.6221	41.2655
4998.5864	41.264
4999.5503	41.2623
5000.5146	41.2613
5001.4790	41.2614
5002.4434	41.263
5003.4072	41.2651
5004.3716	41.2666
5005.3359	41.2667
5006.3003	41.265
5007.2642	41.2617
5008.2285	41.2579
5009.1929	41.2544
5010.1572	41.252
5011.1211	41.2511
5012.0854	41.2516
5013.0498	41.2533
5014.0142	41.2556
5014.9780	41.2576
5015.9424	41.2582
5016.9067	41.2567
5017.8711	41.2526
5018.8350	41.2465
5019.7993	41.2398
5020.7637	41.2341
5021.7280	41.2307
5022.6919	41.2298
5023.6563	41.2307
5024.6206	41.232
5025.5850	41.2324
5026.5488	41.2313
5027.5132	41.2287
5028.4775	41.2252
5029.4419	41.2215
5030.4058	41.2185
5031.3701	41.2166
5032.3345	41.2162
5033.2988	41.2166
5034.2627	41.2173
5035.2271	41.2172
5036.1914	41.2157
5037.1558	41.2128
5038.1196	41.2088
5039.0840	41.2042
5040.0483	41.1996
5041.0127	41.1953
5041.9766	41.1917
5042.9409	41.1893
5043.9053	41.1884
5044.8696	41.1889
5045.8335	41.1898
5046.7979	41.1898
5047.7622	41.1879
5048.7266	41.1841
5049.6904	41.1796
5050.6548	41.176
5051.6191	41.1746
5052.5835	41.1755
5053.5474	41.178
5054.5117	41.1807
5055.4761	41.1824
5056.4404	41.1826
5057.4043	41.1811
5058.3687	41.1781
5059.3330	41.1738
5060.2974	41.1686
5061.2612	41.1628
5062.2256	41.1573
5063.1899	41.1532
5064.1543	41.151
5065.1182	41.1509
5066.0825	41.1522
5067.0469	41.1536
5068.0112	41.1538
5068.9751	41.152
5069.9395	41.1481
5070.9038	41.1428
5071.8682	41.1374
5072.8320	41.133
5073.7964	41.1301
5074.7607	41.1286
5075.7251	41.128
5076.6890	41.1277
5077.6533	41.1276
5078.6177	41.1275
5079.5820	41.1276
5080.5459	41.1275
5081.5103	41.1265
5082.4746	41.1241
5083.4390	41.1203
5084.4028	41.1161
5085.3672	41.1133
5086.3315	41.1128
5087.2959	41.1149
5088.2598	41.1181
5089.2241	41.1207
5090.1885	41.1211
5091.1528	41.1189
5092.1167	41.1149
5093.0811	41.1099
5094.0454	41.1048
5095.0098	41.0997
5095.9736	41.0949
5096.9380	41.0905
5097.9023	41.087
5098.8667	41.0844
5099.8306	41.0824
5100.7949	41.0802
5101.7593	41.0774
5102.7236	41.074
5103.6875	41.0711
5104.6519	41.0694
5105.6162	41.0692
5106.5806	41.07
5107.5444	41.0706
5108.5088	41.07
5109.4731	41.0679
5110.4375	41.0647
5111.4014	41.0615
5112.3657	41.0593
5113.3301	41.0584
5114.2944	41.0581
5115.2583	41.0568
5116.2227	41.0524
5117.1870	41.0444
5118.1514	41.0337
5119.1152	41.0233
5120.0796	41.0169
5121.0439	41.0164
5122.0083	41.0216
5122.9722	41.0293
5123.9365	41.0356
5124.9009	41.038
5125.8652	41.0358
5126.8291	41.0311
5127.7935	41.0262
5128.7578	41.0229
5129.7222	41.021
5130.6860	41.0191
5131.6504	41.0156
5132.6147	41.0104
5133.5791	41.0051
5134.5430	41.0029
5135.5073	41.0063
5136.4717	41.0151
5137.4360	41.0257
5138.3999	41.0322
5139.3643	41.0292
5140.3286	41.0151
5141.2930	40.9935
5142.2568	40.9725
5143.2212	40.9597
5144.1855	40.959
5145.1499	40.9678
5146.1138	40.9792
5147.0781	40.986
5148.0425	40.9853
5149.0068	40.98
5149.9707	40.9769
5150.9351	40.9813
5151.8994	40.9927
5152.8638	41.0044
5153.8276	41.0066
5154.7920	40.994
5155.7563	40.9697
5156.7207	40.9447
5157.6846	40.9305
5158.6489	40.9319
5159.6133	40.9431
5160.5776	40.9522
5161.5415	40.9494
5162.5059	40.9336
5163.4702	40.9141
5164.4346	40.9036
5165.3984	40.9095
5166.3628	40.9284
5167.3271	40.9487
5168.2915	40.9581
5169.2554	40.9514
5170.2197	40.9338
5171.1841	40.9169
5172.1484	40.9112
5173.1123	40.9185
5174.0767	40.9315
5175.0410	40.9393
5176.0054	40.9349
5176.9692	40.9202
5177.9336	40.9052
5178.8979	40.9002
5179.8623	40.9086
5180.8262	40.9242
5181.7905	40.935
5182.7549	40.9318
5183.7192	40.9137
5184.6831	40.8881
5185.6475	40.8643
5186.6118	40.8475
5187.5762	40.8374
5188.5400	40.8321
5189.5044	40.8332
5190.4688	40.8452
5191.4331	40.8714
5192.3970	40.9071
5193.3613	40.9391
5194.3257	40.9505
5195.2900	40.9305
5196.2539	40.8833
5197.2183	40.8291
5198.1826	40.7955
5199.1470	40.8039
5200.1108	40.8585
5201.0752	40.9453
5202.0396	41.0352
5203.0039	41.0922
5203.9678	41.085
5204.9321	41.003
5205.8965	40.8686
5206.8608	40.7306
5207.8247	40.6379
5208.7891	40.6131
5209.7534	40.6475
5210.7178	40.7152
5211.6816	40.7896
5212.6460	40.8527
5213.6104	40.8944
5214.5747	40.9099
5215.5386	40.8984
5216.5029	40.866
5217.4673	40.8298
5218.4316	40.8131
5219.3955	40.8322
5220.3599	40.8827
5221.3242	40.9381
5222.2886	40.9619
5223.2524	40.9299
5224.2168	40.8497
5225.1812	40.7602
5226.1455	40.7059
5227.1094	40.705
5228.0737	40.7418
5229.0381	40.7825
5230.0024	40.7996
5230.9663	40.7876
5231.9307	40.7614
5232.8950	40.7412
5233.8594	40.737
5234.8232	40.7453
5235.7876	40.758
5236.7520	40.7718
5237.7163	40.7907
5238.6802	40.8198
5239.6445	40.8587
5240.6089	40.9005
5241.5732	40.9345
5242.5371	40.9507
5243.5015	40.9407
5244.4658	40.8978
5245.4302	40.8219
5246.3940	40.7268
5247.3584	40.6424
5248.3228	40.6032
5249.2871	40.6267
5250.2510	40.7004
5251.2153	40.7848
5252.1797	40.833
5253.1440	40.8161
5254.1079	40.7447
5255.0723	40.6667
5256.0366	40.6364
5257.0010	40.6776
5257.9648	40.7715
5258.9292	40.8713
5259.8936	40.927
5260.8579	40.9082
5261.8218	40.8208
5262.7861	40.704
5263.7505	40.6064
5264.7148	40.557
5265.6787	40.5553
5266.6431	40.5813
5267.6074	40.6122
5268.5718	40.6339
5269.5356	40.6447
5270.5000	40.6511
5271.4644	40.6613
5272.4287	40.6791
5273.3926	40.7019
5274.3569	40.7231
5275.3213	40.7364
5276.2856	40.7399
5277.2495	40.7364
5278.2139	40.7311
5279.1782	40.727
5280.1426	40.7222
5281.1064	40.7124
5282.0708	40.6969
5283.0352	40.682
5283.9995	40.6786
5284.9634	40.6936
5285.9277	40.7219
5286.8921	40.7457
5287.8564	40.7436
5288.8203	40.7054
5289.7847	40.6414
5290.7490	40.58
5291.7134	40.5498
5292.6772	40.5624
5293.6416	40.6082
5294.6060	40.6641
5295.5703	40.7063
5296.5342	40.7206
5297.4985	40.7062
5298.4629	40.6749
5299.4272	40.6449
5300.3911	40.6331
5301.3555	40.6475
5302.3198	40.6833
5303.2842	40.7236
5304.2480	40.7448
5305.2124	40.7281
5306.1768	40.6719
5307.1411	40.597
5308.1050	40.5367
5309.0693	40.5169
5310.0337	40.541
5310.9980	40.5907
5311.9619	40.6389
5312.9263	40.6645
5313.8906	40.6621
5314.8550	40.6408
5315.8188	40.6147
5316.7832	40.5931
5317.7476	40.5791
5318.7119	40.5744
5319.6758	40.584
5320.6401	40.6135
5321.6045	40.6616
5322.5688	40.7147
5323.5327	40.7503
5324.4971	40.749
5325.4614	40.707
5326.4258	40.6401
5327.3896	40.5734
5328.3540	40.5266
5329.3184	40.5072
5330.2827	40.5161
5331.2466	40.5545
5332.2109	40.6214
5333.1753	40.704
5334.1396	40.7716
5335.1035	40.784
5336.0679	40.7176
5337.0322	40.5935
5337.9966	40.4775
5338.9604	40.4349
5339.9248	40.4827
5340.8892	40.5799
5341.8535	40.6548
5342.8174	40.6465
5343.7817	40.5447
5344.7461	40.4038
5345.7104	40.3072
5346.6743	40.3074
5347.6387	40.3978
5348.6030	40.5287
5349.5674	40.6381
5350.5313	40.6761
5351.4956	40.6244
5352.4600	40.5059
5353.4243	40.3755
5354.3882	40.289
5355.3525	40.2744
5356.3169	40.3247
5357.2813	40.4115
5358.2451	40.501
5359.2095	40.566
5360.1738	40.592
5361.1382	40.5792
5362.1021	40.54
5363.0664	40.493
5364.0308	40.4545
5364.9951	40.4336
5365.9590	40.431
5366.9233	40.4424
5367.8877	40.4636
5368.8521	40.494
5369.8159	40.5354
5370.7803	40.5866
5371.7446	40.6371
5372.7090	40.6655
5373.6729	40.6466
5374.6372	40.5675
5375.6016	40.444
5376.5659	40.3205
5377.5298	40.2474
5378.4941	40.2521
5379.4585	40.3284
5380.4229	40.4426
5381.3867	40.5486
5382.3511	40.6029
5383.3154	40.5803
5384.2798	40.4898
5385.2437	40.3756
5386.2080	40.2952
5387.1724	40.2865
5388.1367	40.3498
5389.1006	40.4533
5390.0649	40.5506
5391.0293	40.5981
5391.9937	40.5724
5392.9575	40.4816
5393.9219	40.3636
5394.8862	40.2652
5395.8506	40.2181
5396.8145	40.2272
5397.7788	40.2762
5398.7432	40.3393
5399.7075	40.392
5400.6714	40.4195
5401.6357	40.4215
5402.6001	40.4114
5403.5645	40.409
5404.5283	40.4298
5405.4927	40.476
5406.4570	40.5355
5407.4214	40.5872
5408.3853	40.6083
5409.3496	40.5821
5410.3140	40.5042
5411.2783	40.3855
5412.2422	40.251
5413.2065	40.1341
5414.1709	40.0646
5415.1353	40.0582
5416.0991	40.1096
5417.0635	40.1952
5418.0278	40.2824
5418.9922	40.3426
5419.9561	40.3659
5420.9204	40.3671
5421.8848	40.3763
5422.8491	40.416
5423.8130	40.4817
5424.7773	40.5404
5425.7417	40.5487
5426.7061	40.4841
5427.6699	40.3689
5428.6343	40.2608
5429.5986	40.2105
5430.5630	40.2246
5431.5269	40.267
5432.4912	40.2911
5433.4556	40.2745
5434.4199	40.2348
5435.3838	40.2124
5436.3481	40.236
5437.3125	40.2989
5438.2769	40.3662
5439.2407	40.3999
5440.2051	40.384
5441.1694	40.333
5442.1338	40.2788
5443.0977	40.2441
5444.0620	40.2288
5445.0264	40.2163
5445.9907	40.1922
5446.9546	40.1569
5447.9189	40.1252
5448.8833	40.1131
5449.8477	40.1266
5450.8115	40.1586
5451.7759	40.1962
5452.7402	40.2284
5453.7046	40.2517
5454.6685	40.2694
5455.6328	40.2865
5456.5972	40.3032
5457.5615	40.3126
5458.5254	40.3043
5459.4897	40.2729
5460.4541	40.2258
5461.4185	40.1826
5462.3823	40.1633
5463.3467	40.1733
5464.3110	40.1985
5465.2754	40.2144
5466.2393	40.2042
5467.2036	40.1745
5468.1680	40.1533
5469.1323	40.1701
5470.0962	40.2313
5471.0605	40.3117
5472.0249	40.3659
5472.9893	40.3536
5473.9531	40.2678
5474.9175	40.145
5475.8818	40.0436
5476.8462	40.0035
5477.8101	40.0253
5478.7744	40.0813
5479.7388	40.1399
5480.7031	40.1835
5481.6670	40.2113
5482.6313	40.2313
5483.5957	40.2486
5484.5601	40.2621
5485.5239	40.2681
5486.4883	40.2664
5487.4526	40.2603
5488.4170	40.2508
5489.3809	40.2319
5490.3452	40.1939
5491.3096	40.1346
5492.2739	40.0673
5493.2378	40.0168
5494.2021	40.0033
5495.1665	40.0285
5496.1309	40.0755
5497.0947	40.1197
5498.0591	40.1443
5499.0234	40.1487
5499.9878	40.1456
5500.9517	40.1503
5501.9160	40.1683
5502.8804	40.1922
5503.8447	40.2065
5504.8086	40.1977
5505.7729	40.1628
5506.7373	40.1119
5507.7017	40.064
5508.6655	40.0372
5509.6299	40.0403
5510.5942	40.0687
5511.5586	40.1078
5512.5225	40.1402
5513.4868	40.1542
5514.4512	40.1487
5515.4155	40.1322
5516.3794	40.1164
5517.3438	40.1077
5518.3081	40.1037
5519.2725	40.097
5520.2363	40.0815
5521.2007	40.0582
5522.1650	40.0347
5523.1294	40.0204
5524.0933	40.0198
5525.0576	40.0309
5526.0220	40.0466
5526.9863	40.0596
5527.9502	40.0669
5528.9146	40.0703
5529.8789	40.0741
5530.8433	40.0816
5531.8071	40.0919
5532.7715	40.1003
5533.7358	40.101
5534.7002	40.0903
5535.6641	40.07
5536.6284	40.0462
5537.5928	40.0274
5538.5571	40.0197
5539.5210	40.0246
5540.4854	40.0386
5541.4497	40.0551
5542.4141	40.0674
5543.3779	40.0715
5544.3423	40.0673
5545.3066	40.0579
5546.2710	40.0474
5547.2349	40.0386
5548.1992	40.0319
5549.1636	40.0256
5550.1279	40.0174
5551.0918	40.0069
5552.0562	39.9956
5553.0205	39.9866
5553.9849	39.9823
5554.9487	39.9836
5555.9131	39.9895
5556.8774	39.9974
5557.8418	40.0046
5558.8057	40.0089
5559.7700	40.0094
5560.7344	40.0062
5561.6987	40.0007
5562.6626	39.995
5563.6270	39.9907
5564.5913	39.9881
5565.5557	39.9862
5566.5195	39.9834
5567.4839	39.9788
5568.4482	39.973
5569.4126	39.9678
5570.3765	39.9652
5571.3408	39.9657
5572.3052	39.9684
5573.2695	39.9718
5574.2334	39.9747
5575.1978	39.977
5576.1621	39.9792
5577.1265	39.9812
5578.0903	39.9824
5579.0547	39.9819
5580.0190	39.9794
5580.9834	39.9755
5581.9473	39.9717
5582.9116	39.9684
5583.8760	39.9656
5584.8403	39.9623
5585.8042	39.9575
5586.7686	39.9513
5587.7329	39.9446
5588.6973	39.9383
5589.6611	39.9331
5590.6255	39.9289
5591.5898	39.9253
5592.5542	39.9218
5593.5181	39.9187
5594.4824	39.9167
5595.4468	39.9168
5596.4111	39.9197
5597.3750	39.9249
5598.3394	39.9313
5599.3037	39.9365
5600.2681	39.938
5601.2319	39.9341
5602.1963	39.925
5603.1606	39.9125
5604.1250	39.9001
5605.0889	39.8909
5606.0532	39.8869
5607.0176	39.888
5607.9819	39.8926
5608.9458	39.898
5609.9102	39.9022
5610.8745	39.9039
5611.8389	39.9026
5612.8027	39.8984
5613.7671	39.8913
5614.7314	39.8818
5615.6958	39.871
5616.6597	39.8607
5617.6240	39.8528
5618.5884	39.8488
5619.5527	39.8489
5620.5166	39.8525
5621.4810	39.8582
5622.4453	39.8653
5623.4097	39.8727
5624.3735	39.8793
5625.3379	39.8834
5626.3022	39.8831
5627.2666	39.8772
5628.2305	39.8666
5629.1948	39.854
5630.1592	39.8427
5631.1235	39.8351
5632.0874	39.8316
5633.0518	39.8309
5634.0161	39.8313
5634.9805	39.8317
5635.9443	39.8319
5636.9087	39.8321
5637.8730	39.8322
5638.8374	39.8313
5639.8013	39.8282
5640.7656	39.8225
5641.7300	39.8148
5642.6943	39.807
5643.6582	39.8012
5644.6226	39.7991
5645.5869	39.8012
5646.5513	39.8068
5647.5151	39.8141
5648.4795	39.8209
5649.4438	39.825
5650.4082	39.8252
5651.3721	39.8212
5652.3364	39.814
5653.3008	39.8053
5654.2651	39.7971
5655.2290	39.791
5656.1934	39.788
5657.1577	39.7881
5658.1221	39.7903
5659.0859	39.7927
5660.0503	39.7935
5661.0146	39.7912
5661.9790	39.786
5662.9429	39.7794
5663.9072	39.7735
5664.8716	39.7703
5665.8359	39.7701
5666.7998	39.772
5667.7642	39.7742
5668.7285	39.775
5669.6929	39.7735
5670.6567	39.77
5671.6211	39.7652
5672.5854	39.7603
5673.5498	39.7564
5674.5137	39.7539
5675.4780	39.7528
5676.4424	39.7527
5677.4067	39.7528
5678.3706	39.7525
5679.3350	39.7521
5680.2993	39.7522
5681.2637	39.7534
5682.2275	39.7553
5683.1919	39.7564
5684.1563	39.7544
5685.1206	39.7481
5686.0845	39.7378
5687.0488	39.7264
5688.0132	39.7172
5688.9775	39.7126
5689.9414	39.713
5690.9058	39.7162
5691.8701	39.7199
5692.8345	39.7222
5693.7983	39.7234
5694.7627	39.7244
5695.7271	39.7263
5696.6914	39.7286
5697.6553	39.7298
5698.6196	39.7282
5699.5840	39.7233
5700.5483	39.7158
5701.5122	39.7073
5702.4766	39.6996
5703.4409	39.6938
5704.4053	39.6902
5705.3691	39.6886
5706.3335	39.6884
5707.2979	39.6894
5708.2622	39.691
5709.2261	39.6927
5710.1904	39.694
5711.1548	39.6944
5712.1191	39.6933
5713.0830	39.6902
5714.0474	39.6849
5715.0117	39.6781
5715.9761	39.6714
5716.9399	39.667
5717.9043	39.6664
5718.8687	39.6693
5719.8330	39.6735
5720.7969	39.6756
5721.7612	39.6733
5722.7256	39.6662
5723.6899	39.6568
5724.6538	39.6484
5725.6182	39.6438
5726.5825	39.644
5727.5469	39.6479
5728.5107	39.6532
5729.4751	39.6577
5730.4395	39.6598
5731.4038	39.6586
5732.3677	39.6539
5733.3320	39.6455
5734.2964	39.6341
5735.2607	39.6208
5736.2246	39.6072
5737.1890	39.5958
5738.1533	39.5886
5739.1177	39.587
5740.0815	39.591
5741.0459	39.5989
5742.0103	39.6075
5742.9746	39.6135
5743.9385	39.6146
5744.9028	39.6105
5745.8672	39.6033
5746.8315	39.5961
5747.7954	39.5917
5748.7598	39.5916
5749.7241	39.5953
5750.6885	39.6012
5751.6523	39.607
5752.6167	39.6104
5753.5811	39.6097
5754.5454	39.6047
5755.5093	39.5966
5756.4736	39.5883
5757.4380	39.5833
5758.4023	39.5839
5759.3662	39.5904
5760.3306	39.6001
5761.2949	39.609
5762.2593	39.6134
5763.2231	39.612
5764.1875	39.6059
5765.1519	39.5976
5766.1162	39.5896
5767.0801	39.5829
5768.0444	39.5772
5769.0088	39.5719
5769.9731	39.5669
5770.9370	39.5629
5771.9014	39.5608
5772.8657	39.5607
5773.8301	39.5619
5774.7939	39.5629
5775.7583	39.5625
5776.7227	39.5606
5777.6870	39.5577
5778.6509	39.555
5779.6152	39.5536
5780.5796	39.5537
5781.5439	39.5546
5782.5083	39.5554
5783.4722	39.5555
5784.4365	39.5547
5785.4009	39.5534
5786.3652	39.5524
5787.3291	39.5515
5788.2935	39.5502
5789.2578	39.5473
5790.2222	39.5416
5791.1860	39.5335
5792.1504	39.5244
5793.1147	39.5168
5794.0791	39.5128
5795.0430	39.5129
5796.0073	39.5158
5796.9717	39.5189
5797.9360	39.5197
5798.8999	39.5171
5799.8643	39.5115
5800.8286	39.5041
5801.7930	39.4962
5802.7568	39.4889
5803.7212	39.483
5804.6855	39.4794
5805.6499	39.479
5806.6138	39.4826
5807.5781	39.4894
5808.5425	39.498
5809.5068	39.5059
5810.4707	39.5114
5811.4351	39.514
5812.3994	39.5139
5813.3638	39.5118
5814.3276	39.5076
5815.2920	39.5003
5816.2563	39.4896
5817.2207	39.476
5818.1846	39.4617
5819.1489	39.4497
5820.1133	39.4424
5821.0776	39.4403
5822.0415	39.4421
5823.0059	39.4454
5823.9702	39.4476
5824.9346	39.447
5825.8984	39.4436
5826.8628	39.4385
5827.8271	39.4339
5828.7915	39.4313
5829.7554	39.4315
5830.7197	39.4337
5831.6841	39.4364
5832.6484	39.4378
5833.6123	39.4374
5834.5767	39.4359
5835.5410	39.4343
5836.5054	39.4334
5837.4692	39.4324
5838.4336	39.4304
5839.3979	39.4266
5840.3623	39.4219
5841.3262	39.4185
5842.2905	39.4178
5843.2549	39.4202
5844.2192	39.4237
5845.1831	39.426
5846.1475	39.4254
5847.1118	39.4217
5848.0762	39.4163
5849.0400	39.4105
5850.0044	39.4051
5850.9688	39.4005
5851.9331	39.3973
5852.8970	39.3966
5853.8613	39.3991
5854.8257	39.4046
5855.7900	39.4113
5856.7539	39.4168
5857.7183	39.419
5858.6826	39.4174
5859.6470	39.4126
5860.6108	39.4056
5861.5752	39.3969
5862.5396	39.3871
5863.5039	39.3769
5864.4678	39.3685
5865.4321	39.3644
5866.3965	39.3661
5867.3608	39.3731
5868.3247	39.3822
5869.2891	39.3894
5870.2534	39.3917
5871.2178	39.3881
5872.1816	39.3799
5873.1460	39.3695
5874.1104	39.3593
5875.0747	39.3513
5876.0386	39.3468
5877.0029	39.3466
5877.9673	39.3502
5878.9316	39.3564
5879.8955	39.3627
5880.8599	39.3665
5881.8242	39.3663
5882.7886	39.3621
5883.7524	39.3556
5884.7168	39.3491
5885.6812	39.3444
5886.6455	39.3422
5887.6094	39.342
5888.5737	39.3426
5889.5381	39.3427
5890.5024	39.3421
5891.4663	39.3413
5892.4307	39.3409
5893.3950	39.3413
5894.3594	39.3421
5895.3232	39.342
5896.2876	39.3398
5897.2520	39.3353
5898.2163	39.3293
5899.1802	39.3233
5900.1445	39.3187
5901.1089	39.3159
5902.0732	39.3144
5903.0371	39.3134
5904.0015	39.3121
5904.9658	39.3105
5905.9302	39.3089
5906.8940	39.3075
5907.8584	39.3068
5908.8228	39.3071
5909.7871	39.3084
5910.7510	39.3102
5911.7153	39.3115
5912.6797	39.3111
5913.6440	39.308
5914.6079	39.3025
5915.5723	39.2954
5916.5366	39.2879
5917.5010	39.2807
5918.4648	39.2737
5919.4292	39.2673
5920.3936	39.2625
5921.3579	39.2608
5922.3218	39.2634
5923.2861	39.2696
5924.2505	39.2771
5925.2148	39.2826
5926.1787	39.2841
5927.1431	39.282
5928.1074	39.2787
5929.0718	39.2766
5930.0356	39.2766
5931.0000	39.2777
5931.9644	39.2778
5932.9287	39.2757
5933.8926	39.2719
5934.8569	39.2677
5935.8213	39.2642
5936.7856	39.2617
5937.7495	39.2593
5938.7139	39.2566
5939.6782	39.2537
5940.6426	39.2513
5941.6064	39.2499
5942.5708	39.2492
5943.5352	39.2478
5944.4995	39.2448
5945.4634	39.2398
5946.4277	39.2337
5947.3921	39.2277
5948.3564	39.2225
5949.3203	39.2176
5950.2847	39.2125
5951.2490	39.2069
5952.2134	39.2018
5953.1772	39.1983
5954.1416	39.1972
5955.1060	39.198
5956.0703	39.1993
5957.0342	39.1995
5957.9985	39.1981
5958.9629	39.1957
5959.9272	39.1938
5960.8911	39.1936
5961.8555	39.1948
5962.8198	39.1964
5963.7842	39.1966
5964.7480	39.1949
5965.7124	39.192
5966.6768	39.1901
5967.6411	39.191
5968.6050	39.1954
5969.5693	39.2021
5970.5337	39.2086
5971.4980	39.2124
5972.4619	39.2123
5973.4263	39.2083
5974.3906	39.2015
5975.3550	39.1933
5976.3188	39.1848
5977.2832	39.1769
5978.2476	39.1705
5979.2119	39.1665
5980.1758	39.1653
5981.1401	39.1667
5982.1045	39.1695
5983.0688	39.1724
5984.0327	39.1747
5984.9971	39.1764
5985.9614	39.1775
5986.9258	39.1775
5987.8896	39.1755
5988.8540	39.1704
5989.8184	39.1623
5990.7827	39.153
5991.7466	39.1451
5992.7109	39.1408
5993.6753	39.14
5994.6396	39.141
5995.6035	39.1415
5996.5679	39.1406
5997.5322	39.1386
5998.4966	39.1373
5999.4604	39.1377
6000.4248	39.1397
6001.3892	39.1424
6002.3535	39.1446
6003.3174	39.1463
6004.2817	39.1478
6005.2461	39.1492
6006.2104	39.1494
6007.1743	39.1467
6008.1387	39.1399
6009.1030	39.1296
6010.0674	39.1185
6011.0313	39.1098
6011.9956	39.1058
6012.9600	39.1063
6013.9243	39.1086
6014.8882	39.1096
6015.8525	39.1077
6016.8169	39.1034
6017.7813	39.0994
6018.7451	39.0983
6019.7095	39.1007
6020.6738	39.1052
6021.6382	39.1091
6022.6021	39.1106
6023.5664	39.1095
6024.5308	39.1071
6025.4951	39.105
6026.4590	39.1035
6027.4233	39.1016
6028.3877	39.098
6029.3521	39.0921
6030.3159	39.0851
6031.2803	39.0788
6032.2446	39.0748
6033.2090	39.0732
6034.1729	39.0731
6035.1372	39.0731
6036.1016	39.0721
6037.0659	39.0701
6038.0298	39.0674
6038.9941	39.0647
6039.9585	39.0623
6040.9229	39.0604
6041.8867	39.0588
6042.8511	39.0569
6043.8154	39.0546
6044.7798	39.0517
6045.7437	39.049
6046.7080	39.048
6047.6724	39.0496
6048.6367	39.054
6049.6006	39.0596
6050.5649	39.064
6051.5293	39.0646
6052.4937	39.0606
6053.4575	39.0531
6054.4219	39.0445
6055.3862	39.0376
6056.3506	39.0347
6057.3145	39.0364
6058.2788	39.0415
6059.2432	39.0476
6060.2075	39.0514
6061.1714	39.0504
6062.1357	39.0438
6063.1001	39.033
6064.0645	39.0215
6065.0283	39.0125
6065.9927	39.0081
6066.9570	39.0074
6067.9214	39.0078
6068.8853	39.0066
6069.8496	39.0024
6070.8140	38.9958
6071.7783	38.9888
6072.7422	38.9837
6073.7065	38.9813
6074.6709	38.9816
6075.6353	38.9833
6076.5991	38.9855
6077.5635	38.9875
6078.5278	38.989
6079.4922	38.99
6080.4561	38.9902
6081.4204	38.9893
6082.3848	38.987
6083.3491	38.9833
6084.3130	38.9787
6085.2773	38.9742
6086.2417	38.9707
6087.2061	38.9687
6088.1699	38.9679
6089.1343	38.9674
6090.0986	38.9665
6091.0630	38.9647
6092.0269	38.9631
6092.9912	38.9628
6093.9556	38.9647
6094.9199	38.9686
6095.8838	38.9726
6096.8481	38.9744
6097.8125	38.9727
6098.7769	38.9678
6099.7407	38.9616
6100.7051	38.9566
6101.6694	38.9541
6102.6338	38.954
6103.5977	38.9551
6104.5620	38.9561
6105.5264	38.9564
6106.4907	38.956
6107.4546	38.9542
6108.4189	38.9498
6109.3833	38.942
6110.3477	38.931
6111.3115	38.9194
6112.2759	38.9104
6113.2402	38.9068
6114.2046	38.9085
6115.1685	38.9126
6116.1328	38.9155
6117.0972	38.9154
6118.0615	38.913
6119.0254	38.9112
6119.9897	38.9124
6120.9541	38.9167
6121.9185	38.9217
6122.8823	38.9243
6123.8467	38.9225
6124.8110	38.917
6125.7754	38.9104
6126.7393	38.9052
6127.7036	38.9026
6128.6680	38.9019
6129.6323	38.9012
6130.5962	38.8989
6131.5605	38.8941
6132.5249	38.8874
6133.4893	38.8797
6134.4531	38.8722
6135.4175	38.8658
6136.3818	38.8612
6137.3462	38.8583
6138.3101	38.8573
6139.2744	38.8579
6140.2388	38.8602
6141.2031	38.8639
6142.1670	38.8681
6143.1313	38.8714
6144.0957	38.872
6145.0601	38.8688
6146.0239	38.8624
6146.9883	38.8552
6147.9526	38.85
6148.9170	38.8486
6149.8809	38.8502
6150.8452	38.852
6151.8096	38.8509
6152.7739	38.8455
6153.7378	38.837
6154.7021	38.8284
6155.6665	38.8225
6156.6309	38.8198
6157.5947	38.8192
6158.5591	38.8184
6159.5234	38.8161
6160.4878	38.8126
6161.4517	38.8093
6162.4160	38.8075
6163.3804	38.8077
6164.3447	38.8092
6165.3086	38.8108
6166.2729	38.8116
6167.2373	38.8116
6168.2017	38.8111
6169.1655	38.8108
6170.1299	38.811
6171.0942	38.8116
6172.0586	38.8115
6173.0225	38.8099
6173.9868	38.8064
6174.9512	38.8018
6175.9155	38.7979
6176.8794	38.7961
6177.8438	38.7964
6178.8081	38.7973
6179.7725	38.797
6180.7363	38.7942
6181.7007	38.7898
6182.6650	38.7858
6183.6294	38.7841
6184.5933	38.7849
6185.5576	38.7865
6186.5220	38.7873
6187.4863	38.7863
6188.4502	38.7847
6189.4146	38.7841
6190.3789	38.7854
6191.3433	38.7875
6192.3071	38.7882
6193.2715	38.7858
6194.2358	38.7802
6195.2002	38.7733
6196.1641	38.7677
6197.1284	38.7652
6198.0928	38.7654
6199.0571	38.7667
6200.0210	38.7673
6200.9854	38.7659
6201.9497	38.7623
6202.9141	38.7574
6203.8779	38.752
6204.8423	38.7472
6205.8066	38.7439
6206.7710	38.743
6207.7349	38.7444
6208.6992	38.7472
6209.6636	38.7493
6210.6279	38.7485
6211.5918	38.7434
6212.5562	38.7346
6213.5205	38.7245
6214.4849	38.7161
6215.4487	38.7118
6216.4131	38.712
6217.3774	38.7156
6218.3418	38.7202
6219.3057	38.7236
6220.2700	38.7245
6221.2344	38.7229
6222.1987	38.7197
6223.1626	38.7161
6224.1270	38.7132
6225.0913	38.7114
6226.0557	38.71
6227.0195	38.7078
6227.9839	38.7036
6228.9482	38.6974
6229.9126	38.69
6230.8765	38.6836
6231.8408	38.6802
6232.8052	38.6807
6233.7695	38.6839
6234.7334	38.6873
6235.6978	38.6882
6236.6621	38.685
6237.6265	38.6785
6238.5903	38.6715
6239.5547	38.6668
6240.5190	38.6659
6241.4834	38.6683
6242.4473	38.6714
6243.4116	38.6731
6244.3760	38.6726
6245.3403	38.6708
6246.3042	38.6691
6247.2686	38.668
6248.2329	38.6664
6249.1973	38.6629
6250.1611	38.6568
6251.1255	38.6494
6252.0898	38.6433
6253.0542	38.6409
6254.0181	38.6424
6254.9824	38.6459
6255.9468	38.6488
6256.9111	38.649
6257.8750	38.646
6258.8394	38.6412
6259.8037	38.6365
6260.7681	38.6334
6261.7319	38.6327
6262.6963	38.6343
6263.6606	38.6373
6264.6250	38.6402
6265.5889	38.6415
6266.5532	38.6402
6267.5176	38.6364
6268.4819	38.6313
6269.4458	38.6267
6270.4102	38.6239
6271.3745	38.6226
6272.3389	38.6217
6273.3027	38.6197
6274.2671	38.6158
6275.2314	38.6102
6276.1958	38.6038
6277.1597	38.5976
6278.1240	38.5924
6279.0884	38.5888
6280.0527	38.5874
6281.0166	38.5883
6281.9810	38.5908
6282.9453	38.5931
6283.9097	38.5929
6284.8735	38.5885
6285.8379	38.58
6286.8022	38.5694
6287.7666	38.5597
6288.7305	38.5532
6289.6948	38.5507
6290.6592	38.5515
6291.6235	38.5539
6292.5874	38.5565
6293.5518	38.5585
6294.5161	38.5597
6295.4805	38.56
6296.4443	38.5593
6297.4087	38.5579
6298.3730	38.5561
6299.3374	38.5543
6300.3013	38.5529
6301.2656	38.5514
6302.2300	38.5493
6303.1943	38.5462
6304.1582	38.5427
6305.1226	38.5401
6306.0869	38.5395
6307.0513	38.5414
6308.0151	38.5443
6308.9795	38.5463
6309.9438	38.5454
6310.9082	38.5414
6311.8721	38.5356
6312.8364	38.5302
6313.8008	38.5272
6314.7651	38.5269
6315.7290	38.5282
6316.6934	38.5291
6317.6577	38.5278
6318.6221	38.5235
6319.5859	38.517
6320.5503	38.5099
6321.5146	38.5042
6322.4790	38.5011
6323.4429	38.5006
6324.4072	38.5014
6325.3716	38.5008
6326.3359	38.4967
6327.2998	38.488
6328.2642	38.4759
6329.2285	38.4636
6330.1929	38.4552
6331.1567	38.4538
6332.1211	38.4605
6333.0854	38.4736
6334.0498	38.4896
6335.0137	38.504
6335.9780	38.5133
6336.9424	38.5158
6337.9067	38.5118
6338.8706	38.5037
6339.8350	38.494
6340.7993	38.4851
6341.7637	38.4785
6342.7275	38.4741
6343.6919	38.4712
6344.6563	38.4687
6345.6206	38.4655
6346.5845	38.4608
6347.5488	38.4546
6348.5132	38.4473
6349.4775	38.4402
6350.4414	38.4347
6351.4058	38.432
6352.3701	38.4324
6353.3345	38.4349
6354.2983	38.4376
6355.2627	38.4382
6356.2271	38.4354
6357.1914	38.4291
6358.1553	38.4207
6359.1196	38.4124
6360.0840	38.4062
6361.0483	38.4036
6362.0122	38.4047
6362.9766	38.4082
6363.9409	38.4119
6364.9053	38.4131
6365.8691	38.4098
6366.8335	38.4016
6367.7979	38.3905
6368.7622	38.3801
6369.7261	38.3745
6370.6904	38.3758
6371.6548	38.3829
6372.6191	38.3916
6373.5830	38.3966
6374.5474	38.3942
6375.5117	38.3845
6376.4761	38.3709
6377.4399	38.3584
6378.4043	38.3509
6379.3687	38.3495
6380.3330	38.3525
6381.2969	38.3573
6382.2612	38.3617
6383.2256	38.3649
6384.1899	38.3674
6385.1538	38.3697
6386.1182	38.372
6387.0825	38.3737
6388.0469	38.3734
6389.0107	38.3702
6389.9751	38.3638
6390.9395	38.3551
6391.9038	38.3458
6392.8677	38.338
6393.8320	38.3327
6394.7964	38.3291
6395.7607	38.3253
6396.7246	38.3196
6397.6890	38.3118
6398.6533	38.3038
6399.6177	38.2984
6400.5815	38.2975
6401.5459	38.301
6402.5103	38.3064
6403.4746	38.3108
6404.4385	38.3126
6405.4028	38.312
6406.3672	38.3108
6407.3315	38.3104
6408.2954	38.3107
6409.2598	38.3102
6410.2241	38.3069
6411.1885	38.2998
6412.1523	38.2898
6413.1167	38.2796
6414.0811	38.2723
6415.0454	38.2703
6416.0093	38.2739
6416.9736	38.2812
6417.9380	38.2889
6418.9023	38.2933
6419.8662	38.2923
6420.8306	38.2859
6421.7949	38.2762
6422.7593	38.2665
6423.7231	38.2602
6424.6875	38.2591
6425.6519	38.2625
6426.6162	38.2673
6427.5801	38.2698
6428.5444	38.2673
6429.5088	38.2605
6430.4731	38.2526
6431.4370	38.2482
6432.4014	38.2499
6433.3657	38.2563
6434.3301	38.2626
6435.2939	38.2635
6436.2583	38.2569
6437.2227	38.2451
6438.1870	38.2337
6439.1509	38.2279
6440.1152	38.2294
6441.0796	38.2354
6442.0439	38.2409
6443.0078	38.2419
6443.9722	38.2372
6444.9365	38.2283
6445.9009	38.2179
6446.8647	38.2082
6447.8291	38.2007
6448.7935	38.1965
6449.7578	38.1966
6450.7217	38.2016
6451.6860	38.2098
6452.6504	38.2173
6453.6147	38.2195
6454.5786	38.2133
6455.5430	38.1995
6456.5073	38.1824
6457.4717	38.1677
6458.4355	38.1589
6459.3999	38.1562
6460.3643	38.1569
6461.3286	38.1582
6462.2925	38.1589
6463.2568	38.1597
6464.2212	38.1616
6465.1855	38.1645
6466.1494	38.1668
6467.1138	38.1663
6468.0781	38.1625
6469.0425	38.1567
6470.0063	38.1511
6470.9707	38.1478
6471.9351	38.1472
6472.8994	38.1483
6473.8633	38.1496
6474.8276	38.1499
6475.7920	38.1491
6476.7563	38.1472
6477.7202	38.1447
6478.6846	38.1422
6479.6489	38.1396
6480.6133	38.1369
6481.5771	38.1333
6482.5415	38.1282
6483.5059	38.1217
6484.4702	38.1152
6485.4341	38.1113
6486.3984	38.1122
6487.3628	38.1178
6488.3271	38.1255
6489.2910	38.1307
6490.2554	38.1297
6491.2197	38.1218
6492.1841	38.1095
6493.1479	38.0976
6494.1123	38.0899
6495.0767	38.0874
6496.0410	38.0884
6497.0049	38.0894
6497.9692	38.0876
6498.9336	38.0819
6499.8979	38.0733
6500.8618	38.0639
6501.8262	38.0555
6502.7905	38.0496
6503.7549	38.0467
6504.7188	38.0476
6505.6831	38.0527
6506.6475	38.0616
6507.6118	38.073
6508.5757	38.0839
6509.5400	38.091
6510.5044	38.0915
6511.4688	38.0849
6512.4326	38.0733
6513.3970	38.0603
6514.3613	38.0492
6515.3257	38.0421
6516.2896	38.0391
6517.2539	38.0389
6518.2183	38.0398
6519.1826	38.0402
6520.1465	38.0388
6521.1108	38.0348
6522.0752	38.0281
6523.0396	38.0198
6524.0034	38.0117
6524.9678	38.0057
6525.9321	38.0025
6526.8965	38.0016
6527.8604	38.001
6528.8247	37.9989
6529.7891	37.9945
6530.7534	37.9887
6531.7173	37.983
6532.6816	37.979
6533.6460	37.9777
6534.6104	37.9791
6535.5742	37.9828
6536.5386	37.9875
6537.5029	37.992
6538.4673	37.9949
6539.4312	37.9951
6540.3955	37.9921
6541.3599	37.986
6542.3242	37.9778
6543.2881	37.9692
6544.2524	37.9619
6545.2168	37.9576
6546.1812	37.9574
6547.1450	37.961
6548.1094	37.9672
6549.0737	37.9739
6550.0381	37.9787
6551.0020	37.9795
6551.9663	37.9753
6552.9307	37.9665
6553.8950	37.9547
6554.8589	37.9424
6555.8232	37.9319
6556.7876	37.9247
6557.7520	37.9207
6558.7158	37.9184
6559.6802	37.9159
6560.6445	37.9127
6561.6089	37.91
6562.5728	37.9104
6563.5371	37.9153
6564.5015	37.9238
6565.4658	37.9319
6566.4297	37.9348
6567.3940	37.93
6568.3584	37.9188
6569.3228	37.9062
6570.2866	37.8979
6571.2510	37.897
6572.2153	37.9027
6573.1797	37.9107
6574.1436	37.9167
6575.1079	37.9183
6576.0723	37.9158
6577.0366	37.911
6578.0005	37.9051
6578.9648	37.8981
6579.9292	37.8896
6580.8936	37.88
6581.8574	37.8714
6582.8218	37.8664
6583.7861	37.8665
6584.7505	37.8708
6585.7144	37.8764
6586.6787	37.8797
6587.6431	37.8783
6588.6074	37.8717
6589.5713	37.8612
6590.5356	37.8486
6591.5000	37.836
6592.4644	37.8252
6593.4282	37.8177
6594.3926	37.8147
6595.3569	37.8163
6596.3213	37.8206
6597.2852	37.8249
6598.2495	37.8261
6599.2139	37.8229
6600.1782	37.8158
6601.1421	37.8069
6602.1064	37.7985
6603.0708	37.7916
6604.0352	37.7864
6604.9990	37.7824
6605.9634	37.7797
6606.9277	37.7787
6607.8921	37.7796
6608.8560	37.7819
6609.8203	37.7846
6610.7847	37.787
6611.7490	37.7893
6612.7129	37.7921
6613.6772	37.7958
6614.6416	37.7991
6615.6060	37.799
6616.5698	37.7923
6617.5342	37.778
6618.4985	37.7583
6619.4629	37.7383
6620.4268	37.7238
6621.3911	37.7185
6622.3555	37.7226
6623.3198	37.7325
6624.2837	37.7431
6625.2480	37.7502
6626.2124	37.752
6627.1768	37.7496
6628.1406	37.7459
6629.1050	37.7439
6630.0693	37.7447
6631.0337	37.747
6631.9976	37.7478
6632.9619	37.7443
6633.9263	37.7352
6634.8906	37.7223
6635.8545	37.7091
6636.8188	37.6992
6637.7832	37.6947
6638.7476	37.6953
6639.7114	37.699
6640.6758	37.7035
6641.6401	37.7072
6642.6045	37.7096
6643.5684	37.7111
6644.5327	37.712
6645.4971	37.7124
6646.4614	37.7123
6647.4253	37.7117
6648.3896	37.7108
6649.3540	37.7102
6650.3184	37.7102
6651.2822	37.7111
6652.2466	37.7125
6653.2109	37.7133
6654.1753	37.7117
6655.1392	37.706
6656.1035	37.6957
6657.0679	37.6816
6658.0322	37.666
6658.9961	37.6521
6659.9604	37.6429
6660.9248	37.6401
6661.8892	37.6438
6662.8530	37.6517
6663.8174	37.6601
6664.7817	37.6646
6665.7461	37.6618
6666.7100	37.6518
6667.6743	37.6382
6668.6387	37.6272
6669.6030	37.6248
6670.5669	37.6335
6671.5313	37.6506
6672.4956	37.6693
6673.4600	37.6816
6674.4238	37.6818
6675.3882	37.6687
6676.3525	37.6452
6677.3169	37.6171
6678.2808	37.5905
6679.2451	37.571
6680.2095	37.5616
6681.1738	37.5625
6682.1377	37.5708
6683.1021	37.5812
6684.0664	37.5884
6685.0308	37.5895
6685.9946	37.5852
6686.9590	37.5788
6687.9233	37.5739
6688.8877	37.5722
6689.8516	37.5723
6690.8159	37.5711
6691.7803	37.5661
6692.7446	37.5568
6693.7085	37.5451
6694.6729	37.5338
6695.6372	37.5258
6696.6016	37.5225
6697.5654	37.5243
6698.5298	37.5307
6699.4941	37.5401
6700.4585	37.5502
6701.4224	37.5584
6702.3867	37.5621
6703.3511	37.56
6704.3154	37.5529
6705.2793	37.5434
6706.2437	37.535
6707.2080	37.5304
6708.1724	37.5306
6709.1362	37.5343
6710.1006	37.5387
6711.0649	37.5411
6712.0293	37.5396
6712.9932	37.5342
6713.9575	37.5261
6714.9219	37.5173
6715.8862	37.5099
6716.8501	37.5052
6717.8145	37.5042
6718.7788	37.507
6719.7432	37.5127
6720.7070	37.5186
6721.6714	37.5211
6722.6357	37.5171
6723.6001	37.506
6724.5640	37.4908
6725.5283	37.4771
6726.4927	37.4696
6727.4570	37.4701
6728.4209	37.4765
6729.3853	37.4849
6730.3496	37.4917
6731.3140	37.4957
6732.2778	37.4969
6733.2422	37.4949
6734.2065	37.4883
6735.1709	37.476
6736.1348	37.4592
6737.0991	37.4422
6738.0635	37.4303
6739.0278	37.4268
6739.9917	37.4306
6740.9561	37.4371
6741.9204	37.4412
6742.8848	37.4407
6743.8486	37.437
6744.8130	37.433
6745.7773	37.4305
6746.7417	37.4289
6747.7056	37.426
6748.6699	37.4205
6749.6343	37.4128
6750.5986	37.4049
6751.5625	37.3984
6752.5269	37.3937
6753.4912	37.3901
6754.4556	37.3869
6755.4194	37.3846
6756.3838	37.3844
6757.3481	37.3874
6758.3125	37.3929
6759.2764	37.3994
6760.2407	37.4046
6761.2051	37.4072
6762.1694	37.4071
6763.1333	37.405
6764.0977	37.4015
6765.0620	37.3967
6766.0264	37.3899
6766.9902	37.3813
6767.9546	37.3725
6768.9189	37.3667
6769.8833	37.3668
6770.8472	37.374
6771.8115	37.3866
6772.7759	37.4008
6773.7402	37.4121
6774.7041	37.4176
6775.6685	37.4165
6776.6328	37.4104
6777.5972	37.4014
6778.5610	37.3916
6779.5254	37.382
6780.4897	37.3729
6781.4541	37.3643
6782.4180	37.3561
6783.3823	37.3484
6784.3467	37.3414
6785.3110	37.3354
6786.2749	37.3302
6787.2393	37.3256
6788.2036	37.3212
6789.1680	37.3171
6790.1318	37.3145
6791.0962	37.3156
6792.0605	37.3218
6793.0249	37.3323
6793.9888	37.3431
6794.9531	37.3488
6795.9175	37.3455
6796.8818	37.3335
6797.8457	37.3185
6798.8101	37.308
6799.7744	37.3071
6800.7388	37.3153
6801.7026	37.326
6802.6670	37.3308
6803.6313	37.3238
6804.5957	37.3054
6805.5596	37.2818
6806.5239	37.2618
6807.4883	37.252
6808.4526	37.2541
6809.4165	37.2644
6810.3809	37.2765
6811.3452	37.2844
6812.3096	37.285
6813.2734	37.2791
6814.2378	37.2709
6815.2021	37.2651
6816.1665	37.2651
6817.1304	37.2713
6818.0947	37.2805
6819.0591	37.2878
6820.0234	37.2885
6820.9873	37.2806
6821.9517	37.266
6822.9160	37.2498
6823.8804	37.2382
6824.8442	37.2349
6825.8086	37.24
6826.7729	37.2493
6827.7373	37.2567
6828.7012	37.2565
6829.6655	37.2461
6830.6299	37.2269
6831.5942	37.2033
6832.5581	37.1814
6833.5225	37.1671
6834.4868	37.1643
6835.4512	37.1742
6836.4150	37.1949
6837.3794	37.2215
6838.3438	37.2476
6839.3081	37.2668
6840.2720	37.2748
6841.2363	37.2706
6842.2007	37.257
6843.1650	37.2395
6844.1289	37.2235
6845.0933	37.2126
6846.0576	37.2077
6847.0220	37.2073
6847.9858	37.2092
6848.9502	37.2117
6849.9146	37.2141
6850.8789	37.2161
6851.8428	37.2169
6852.8071	37.2157
6853.7715	37.2115
6854.7358	37.2048
6855.6997	37.1966
6856.6641	37.1881
6857.6284	37.1793
6858.5928	37.169
6859.5566	37.1556
6860.5210	37.1396
6861.4854	37.124
6862.4497	37.1136
6863.4136	37.1124
6864.3779	37.1211
6865.3423	37.1368
6866.3066	37.1535
6867.2705	37.166
6868.2349	37.1716
6869.1992	37.1711
6870.1636	37.1679
6871.1274	37.1652
6872.0918	37.1642
6873.0562	37.1636
6874.0205	37.1615
6874.9844	37.1564
6875.9487	37.1494
6876.9131	37.1433
6877.8774	37.1409
6878.8413	37.1433
6879.8057	37.1484
6880.7700	37.1522
6881.7344	37.1507
6882.6982	37.1431
6883.6626	37.1321
6884.6270	37.1238
6885.5913	37.1241
6886.5552	37.1358
6887.5195	37.1566
6888.4839	37.18
6889.4482	37.1977
6890.4121	37.2037
6891.3765	37.1967
6892.3408	37.1805
6893.3052	37.1624
6894.2690	37.1488
6895.2334	37.143
6896.1978	37.1437
6897.1621	37.147
6898.1260	37.1489
6899.0903	37.1471
6900.0547	37.141
6901.0190	37.1309
6901.9829	37.1172
6902.9473	37.1004
6903.9116	37.0814
6904.8760	37.0622
6905.8398	37.0455
6906.8042	37.0334
6907.7686	37.0273
6908.7329	37.0278
6909.6968	37.0351
6910.6611	37.0483
6911.6255	37.0644
6912.5898	37.078
6913.5537	37.082
6914.5181	37.0713
6915.4824	37.0462
6916.4468	37.0141
6917.4106	36.986
6918.3750	36.9714
6919.3394	36.9732
6920.3037	36.9876
6921.2676	37.0072
6922.2319	37.0264
6923.1963	37.0431
6924.1606	37.0583
6925.1245	37.0725
6926.0889	37.0836
6927.0532	37.0874
6928.0176	37.0813
6928.9814	37.0666
6929.9458	37.0494
6930.9102	37.037
6931.8745	37.0332
6932.8384	37.0368
6933.8027	37.0417
6934.7671	37.042
6935.7314	37.0355
6936.6953	37.0252
6937.6597	37.0173
6938.6240	37.0166
6939.5884	37.0234
6940.5522	37.0325
6941.5166	37.0363
6942.4810	37.0289
6943.4453	37.0093
6944.4092	36.983
6945.3735	36.9589
6946.3379	36.9461
6947.3022	36.95
6948.2661	36.9704
6949.2305	37.0016
6950.1948	37.034
6951.1592	37.0569
6952.1230	37.0624
6953.0874	37.0481
6954.0518	37.019
6955.0161	36.9867
6955.9800	36.9641
6956.9443	36.9602
6957.9087	36.9748
6958.8730	36.999
6959.8369	37.0198
6960.8013	37.0264
6961.7656	37.0159
6962.7300	36.995
6963.6938	36.9752
6964.6582	36.9672
6965.6226	36.9744
6966.5869	36.9922
6967.5508	37.011
6968.5151	37.0214
6969.4795	37.0199
6970.4438	37.0098
6971.4077	36.9995
6972.3721	36.9969
6973.3364	37.0047
6974.3008	37.0187
6975.2646	37.0298
6976.2290	37.0291
6977.1934	37.0133
6978.1577	36.9868
6979.1216	36.9596
6980.0859	36.9414
6981.0503	36.9358
6982.0146	36.9384
6982.9785	36.94
6983.9429	36.9327
6984.9072	36.9151
6985.8716	36.8934
6986.8354	36.8779
6987.7998	36.8769
6988.7642	36.8918
6989.7285	36.9173
6990.6924	36.9437
6991.6567	36.9615
6992.6211	36.9642
6993.5854	36.9504
6994.5493	36.9234
6995.5137	36.8896
6996.4780	36.8568
6997.4424	36.8318
6998.4063	36.8193
6999.3706	36.8206
7000.3350	36.8348
7001.2993	36.8598
7002.2632	36.893
7003.2275	36.9311
7004.1919	36.969
7005.1563	36.9997
7006.1201	37.0163
7007.0845	37.0149
7008.0488	36.9962
7009.0132	36.9657
7009.9771	36.9307
7010.9414	36.8977
7011.9058	36.8715
7012.8701	36.8552
7013.8340	36.8514
7014.7983	36.8606
7015.7627	36.8797
7016.7271	36.9013
7017.6909	36.9154
7018.6553	36.9143
7019.6196	36.8968
7020.5840	36.8692
7021.5479	36.8425
7022.5122	36.8258
7023.4766	36.822
7024.4409	36.8269
7025.4048	36.8334
7026.3691	36.8364
7027.3335	36.8355
7028.2979	36.834
7029.2617	36.8354
7030.2261	36.8405
7031.1904	36.8468
7032.1548	36.8511
7033.1187	36.852
7034.0830	36.8514
7035.0474	36.8533
7036.0117	36.8606
7036.9756	36.8725
7037.9399	36.8856
7038.9043	36.8965
7039.8687	36.9046
7040.8325	36.9126
7041.7969	36.9238
7042.7612	36.9385
7043.7256	36.9523
7044.6895	36.9584
7045.6538	36.9522
7046.6182	36.9349
7047.5825	36.9129
7048.5464	36.8935
7049.5107	36.8806
7050.4751	36.8733
7051.4395	36.868
7052.4033	36.8616
7053.3677	36.8534
7054.3320	36.8449
7055.2964	36.8371
7056.2603	36.8296
7057.2246	36.8217
7058.1890	36.8135
7059.1533	36.8069
7060.1172	36.8043
7061.0815	36.8064
7062.0459	36.8112
7063.0103	36.8154
7063.9741	36.8164
7064.9385	36.8142
7065.9028	36.811
7066.8672	36.8084
7067.8311	36.8053
7068.7954	36.7975
7069.7598	36.7796
7070.7241	36.7496
7071.6880	36.7113
7072.6523	36.674
7073.6167	36.6487
7074.5811	36.6423
7075.5449	36.6551
7076.5093	36.6801
7077.4736	36.7075
7078.4380	36.7293
7079.4019	36.7433
7080.3662	36.7536
7081.3306	36.7652
7082.2949	36.7793
7083.2588	36.7917
7084.2231	36.7961
7085.1875	36.7912
7086.1519	36.7845
7087.1157	36.7897
7088.0801	36.8168
7089.0444	36.8633
7090.0088	36.9121
7090.9727	36.9384
7091.9370	36.9236
7092.9014	36.866
7093.8657	36.7839
7094.8296	36.7053
7095.7939	36.6536
7096.7583	36.6383
7097.7227	36.6567
7098.6865	36.6997
7099.6509	36.7567
7100.6152	36.8164
7101.5796	36.8651
7102.5435	36.889
7103.5078	36.8787
7104.4722	36.8343
7105.4365	36.7665
7106.4004	36.6927
7107.3647	36.6315
7108.3291	36.5988
7109.2935	36.6072
7110.2573	36.6614
7111.2217	36.7536
7112.1860	36.858
7113.1504	36.9357
7114.1143	36.9483
7115.0786	36.8791
7116.0430	36.7489
7117.0073	36.61
7117.9712	36.5181
7118.9355	36.5013
7119.8999	36.5501
7120.8643	36.6321
7121.8281	36.7132
7122.7925	36.7717
7123.7568	36.8013
7124.7212	36.8063
7125.6851	36.7962
7126.6494	36.7817
7127.6138	36.7735
7128.5781	36.7803
7129.5420	36.8061
7130.5063	36.8483
7131.4707	36.8981
7132.4351	36.9432
7133.3989	36.9702
7134.3633	36.9672
7135.3276	36.9268
7136.2920	36.8506
7137.2559	36.7533
7138.2202	36.6602
7139.1846	36.5965
7140.1489	36.5726
7141.1128	36.5782
7142.0771	36.5895
7143.0415	36.5856
7144.0059	36.563
7144.9697	36.5373
7145.9341	36.5306
7146.8984	36.5547
7147.8628	36.6015
7148.8267	36.6489
7149.7910	36.6757
7150.7554	36.6755
7151.7197	36.6611
7152.6836	36.6571
7153.6479	36.6838
7154.6123	36.7435
7155.5767	36.8165
7156.5405	36.8692
7157.5049	36.87
7158.4692	36.8078
7159.4336	36.7033
7160.3975	36.6025
7161.3618	36.5514
7162.3262	36.5679
7163.2905	36.6317
7164.2544	36.6972
7165.2188	36.7186
7166.1831	36.6763
7167.1475	36.5883
7168.1113	36.4997
7169.0757	36.4537
7170.0400	36.4676
7171.0044	36.5302
7171.9683	36.6164
7172.9326	36.7054
7173.8970	36.79
7174.8613	36.8714
7175.8252	36.9456
7176.7896	36.9938
7177.7539	36.9859
7178.7183	36.899
7179.6821	36.7393
7180.6465	36.5523
7181.6108	36.4027
7182.5752	36.3392
7183.5391	36.3697
7184.5034	36.4655
7185.4678	36.5832
7186.4321	36.687
7187.3960	36.7596
7188.3604	36.8007
7189.3247	36.8169
7190.2891	36.8117
7191.2529	36.7834
7192.2173	36.731
7193.1816	36.6611
7194.1460	36.5913
7195.1099	36.5457
7196.0742	36.5451
7197.0386	36.5971
7198.0029	36.6914
7198.9668	36.8003
7199.9312	36.8864
7200.8955	36.9152
7201.8599	36.8701
7202.8237	36.763
7203.7881	36.6319
7204.7524	36.5225
7205.7168	36.4655
7206.6807	36.4652
7207.6450	36.5039
7208.6094	36.555
7209.5737	36.5969
7210.5376	36.6213
7211.5020	36.6354
7212.4663	36.6548
7213.4307	36.6899
7214.3945	36.7347
7215.3589	36.7661
7216.3232	36.7572
7217.2876	36.6977
7218.2515	36.6065
7219.2158	36.5254
7220.1802	36.4923
7221.1445	36.5186
7222.1084	36.5861
7223.0728	36.6655
7224.0371	36.7383
7225.0015	36.8052
7225.9653	36.8759
7226.9297	36.9466
7227.8940	36.9883
7228.8584	36.9573
7229.8223	36.8265
7230.7866	36.6177
7231.7510	36.4051
7232.7153	36.275
7233.6792	36.2737
7234.6436	36.3902
7235.6079	36.577
7236.5723	36.7778
7237.5361	36.9415
7238.5005	37.026
7239.4648	37.0022
7240.4292	36.865
7241.3931	36.648
7242.3574	36.4188
7243.3218	36.2499
7244.2861	36.1838
7245.2500	36.2203
7246.2144	36.3283
7247.1787	36.4649
7248.1431	36.5896
7249.1069	36.6725
7250.0713	36.6991
7251.0356	36.6743
7252.0000	36.6226
7252.9639	36.5806
7253.9282	36.5809
7254.8926	36.6354
7255.8569	36.7272
7256.8208	36.8169
7257.7852	36.8599
7258.7495	36.828
7259.7139	36.725
7260.6777	36.5864
7261.6421	36.4618
7262.6064	36.3899
7263.5708	36.3828
7264.5347	36.4264
7265.4990	36.4914
7266.4634	36.5475
7267.4277	36.5751
7268.3916	36.5698
7269.3560	36.54
7270.3203	36.5005
7271.2847	36.4642
7272.2485	36.4387
7273.2129	36.4246
7274.1772	36.4181
7275.1416	36.4136
7276.1055	36.4063
7277.0698	36.3952
7278.0342	36.3847
7278.9985	36.3845
7279.9624	36.4056
7280.9268	36.4524
7281.8911	36.5163
7282.8555	36.5758
7283.8193	36.6055
7284.7837	36.5919
7285.7480	36.5444
7286.7124	36.4928
7287.6763	36.4689
7288.6406	36.4856
7289.6050	36.5294
7290.5693	36.5709
7291.5332	36.5869
7292.4976	36.5768
7293.4619	36.5619
7294.4263	36.5656
7295.3901	36.5926
7296.3545	36.6265
7297.3188	36.6476
7298.2832	36.6515
7299.2471	36.6534
7300.2114	36.6726
7301.1758	36.7108
7302.1401	36.745
7303.1040	36.7407
7304.0684	36.6772
7305.0327	36.5659
7305.9971	36.4484
7306.9609	36.3724
7307.9253	36.3634
7308.8896	36.4125
7309.8540	36.4859
7310.8179	36.5446
7311.7822	36.5628
7312.7466	36.537
7313.7109	36.4835
7314.6748	36.4271
7315.6392	36.3893
7316.6035	36.3791
7317.5679	36.3916
7318.5317	36.4132
7319.4961	36.4314
7320.4604	36.4417
7321.4248	36.4475
7322.3887	36.4504
7323.3530	36.4421
7324.3174	36.404
7325.2817	36.3217
7326.2456	36.2026
7327.2100	36.0814
7328.1743	36.0029
7329.1387	35.9957
7330.1025	36.0574
7331.0669	36.1634
7332.0313	36.2869
7332.9956	36.4125
7333.9595	36.5374
7334.9238	36.6599
7335.8882	36.7679
7336.8525	36.8362
7337.8164	36.8381
7338.7808	36.765
7339.7451	36.6403
7340.7095	36.5098
7341.6733	36.4138
7342.6377	36.3656
7343.6021	36.3527
7344.5664	36.3539
7345.5303	36.3574
7346.4946	36.3679
7347.4590	36.4013
7348.4233	36.4677
7349.3872	36.5562
7350.3516	36.6338
7351.3159	36.6604
7352.2803	36.612
7353.2441	36.5004
7354.2085	36.3722
7355.1729	36.2841
7356.1372	36.2689
7357.1011	36.3173
7358.0654	36.3879
7359.0298	36.4341
7359.9941	36.4297
7360.9580	36.3798
7361.9224	36.3108
7362.8867	36.2491
7363.8511	36.2059
7364.8149	36.1763
7365.7793	36.1517
7366.7437	36.1321
7367.7080	36.1283
7368.6719	36.1537
7369.6362	36.2122
7370.6006	36.2937
7371.5649	36.3793
7372.5288	36.4509
7373.4932	36.4989
7374.4575	36.5245
7375.4219	36.5355
7376.3857	36.5384
7377.3501	36.5325
7378.3145	36.513
7379.2788	36.4774
7380.2427	36.431
7381.2070	36.3864
7382.1714	36.355
7383.1357	36.3384
7384.0996	36.3276
7385.0640	36.3094
7386.0283	36.2771
7386.9927	36.2358
7387.9565	36.2001
7388.9209	36.1853
7389.8853	36.1976
7390.8496	36.2296
7391.8135	36.2644
7392.7778	36.2845
7393.7422	36.2805
7394.7065	36.2552
7395.6704	36.2227
7396.6348	36.2028
7397.5991	36.2132
7398.5635	36.2611
7399.5273	36.3369
7400.4917	36.4161
7401.4561	36.4676
7402.4204	36.4684
7403.3843	36.4167
7404.3486	36.3338
7405.3130	36.253
7406.2773	36.2011
7407.2412	36.1855
7408.2056	36.1955
7409.1699	36.2136
7410.1343	36.2278
7411.0981	36.2375
7412.0625	36.2497
7413.0269	36.2715
7413.9912	36.304
7414.9551	36.3422
7415.9194	36.3794
7416.8838	36.4112
7417.8481	36.4373
7418.8120	36.4585
7419.7764	36.473
7420.7407	36.4756
7421.7051	36.459
7422.6689	36.4181
7423.6333	36.3543
7424.5977	36.2774
7425.5620	36.2039
7426.5259	36.1505
7427.4902	36.1267
7428.4546	36.1304
7429.4189	36.149
7430.3828	36.1664
7431.3472	36.1718
7432.3115	36.166
7433.2759	36.159
7434.2397	36.1627
7435.2041	36.182
7436.1685	36.2119
7437.1328	36.2412
7438.0967	36.2599
7439.0610	36.2653
7440.0254	36.2617
7440.9897	36.2556
7441.9536	36.2521
7442.9180	36.2529
7443.8823	36.2584
7444.8467	36.2683
7445.8105	36.2813
7446.7749	36.2936
7447.7393	36.3002
7448.7036	36.298
7449.6675	36.2897
7450.6318	36.2839
7451.5962	36.29
7452.5605	36.3101
7453.5244	36.3342
7454.4888	36.344
7455.4531	36.3229
7456.4175	36.2671
7457.3813	36.1891
7458.3457	36.1123
7459.3101	36.0602
7460.2744	36.0461
7461.2383	36.0693
7462.2026	36.1184
7463.1670	36.179
7464.1313	36.2407
7465.0952	36.2987
7466.0596	36.352
7467.0239	36.3992
7467.9883	36.4375
7468.9521	36.4638
7469.9165	36.4767
7470.8809	36.4766
7471.8452	36.464
7472.8091	36.4377
7473.7734	36.397
7474.7378	36.3451
7475.7021	36.2926
7476.6660	36.2546
7477.6304	36.2429
7478.5947	36.2573
7479.5591	36.2836
7480.5229	36.3001
7481.4873	36.2913
7482.4517	36.2586
7483.4160	36.221
7484.3799	36.2027
7485.3442	36.2172
7486.3086	36.2567
7487.2729	36.2941
7488.2368	36.298
7489.2012	36.2523
7490.1655	36.1684
7491.1299	36.0806
7492.0938	36.0283
7493.0581	36.0353
7494.0225	36.0992
7494.9868	36.1936
7495.9507	36.2816
7496.9150	36.3329
7497.8794	36.3373
7498.8438	36.3072
7499.8076	36.2675
7500.7720	36.2415
7501.7363	36.2388
7502.7007	36.2525
7503.6646	36.2647
7504.6289	36.257
7505.5933	36.2215
7506.5576	36.166
7507.5215	36.1104
7508.4858	36.0756
7509.4502	36.072
7510.4146	36.0932
7511.3784	36.1192
7512.3428	36.1283
7513.3071	36.1113
7514.2715	36.0778
7515.2354	36.0487
7516.1997	36.0405
7517.1641	36.0525
7518.1284	36.0667
7519.0923	36.0599
7520.0566	36.0201
7521.0210	35.9545
7521.9854	35.8835
7522.9492	35.8272
7523.9136	35.7961
7524.8779	35.7899
7525.8423	35.805
7526.8062	35.8395
7527.7705	35.8932
7528.7349	35.9615
7529.6992	36.0303
7530.6631	36.0785
7531.6274	36.0882
7532.5918	36.0581
7533.5562	36.0067
7534.5200	35.9638
7535.4844	35.9545
7536.4487	35.9855
7537.4131	36.0406
7538.3770	36.0877
7539.3413	36.0953
7540.3057	36.0497
7541.2700	35.9622
7542.2339	35.862
7543.1982	35.78
7544.1626	35.7338
7545.1270	35.7219
7546.0908	35.7284
7547.0552	35.7332
7548.0195	35.7225
7548.9839	35.6941
7549.9478	35.6573
7550.9121	35.6269
7551.8765	35.6171
7552.8408	35.6359
7553.8047	35.6828
7554.7690	35.7492
7555.7334	35.8215
7556.6978	35.8856
7557.6616	35.9302
7558.6260	35.9483
7559.5903	35.9376
7560.5547	35.8998
7561.5186	35.8417
7562.4829	35.7766
7563.4473	35.7234
7564.4116	35.7009
7565.3755	35.7204
7566.3398	35.7778
7567.3042	35.8538
7568.2686	35.9204
7569.2324	35.954
7570.1968	35.9452
7571.1611	35.9007
7572.1255	35.8362
7573.0894	35.7659
7574.0537	35.6973
7575.0181	35.6319
7575.9824	35.57
7576.9463	35.5153
7577.9106	35.4752
7578.8750	35.4563
7579.8394	35.4601
7580.8032	35.4798
7581.7676	35.5031
7582.7319	35.5175
7583.6963	35.5166
7584.6602	35.5036
7585.6245	35.4893
7586.5889	35.4872
7587.5532	35.5062
7588.5171	35.5476
7589.4814	35.6039
7590.4458	35.6612
7591.4102	35.7039
7592.3740	35.7196
7593.3384	35.705
7594.3027	35.6691
7595.2671	35.6312
7596.2310	35.6127
7597.1953	35.6282
7598.1597	35.6797
7599.1240	35.7574
7600.0879	35.8463
7601.0522	35.9332
7602.0166	36.0098
7602.9810	36.0691
7603.9448	36.0996
7604.9092	36.0855
7605.8735	36.0167
7606.8379	35.9009
7607.8018	35.7677
7608.7661	35.6576
7609.7305	35.6034
7610.6948	35.6135
7611.6587	35.6681
7612.6230	35.7297
7613.5874	35.764
7614.5518	35.758
7615.5156	35.7239
7616.4800	35.6856
7617.4443	35.6627
7618.4087	35.6606
7619.3726	35.6728
7620.3369	35.6873
7621.3013	35.694
7622.2656	35.6873
7623.2295	35.6676
7624.1938	35.6421
7625.1582	35.6254
7626.1226	35.637
7627.0864	35.6951
7628.0508	35.8066
7629.0151	35.9584
7629.9795	36.1149
7630.9434	36.2254
7631.9077	36.2426
7632.8721	36.1457
7633.8364	35.9536
7634.8003	35.7201
7635.7646	35.5141
7636.7290	35.3971
7637.6934	35.4056
7638.6572	35.5408
7639.6216	35.7665
7640.5859	36.0159
7641.5503	36.2105
7642.5142	36.2872
7643.4785	36.2209
7644.4429	36.0335
7645.4072	35.7819
7646.3711	35.5358
7647.3354	35.3546
7648.2998	35.2735
7649.2642	35.2984
7650.2280	35.4083
7651.1924	35.5619
7652.1567	35.7074
7653.1211	35.7944
7654.0850	35.7882
7655.0493	35.6816
7656.0137	35.5007
7656.9780	35.2982
7657.9419	35.1372
7658.9063	35.0717
7659.8706	35.1287
7660.8350	35.2977
7661.7988	35.5309
7662.7632	35.7588
7663.7275	35.9189
7664.6919	35.9814
7665.6558	35.9561
7666.6201	35.8774
7667.5845	35.7829
7668.5488	35.6989
7669.5127	35.6378
7670.4771	35.6022
7671.4414	35.5895
7672.4058	35.5938
7673.3696	35.606
7674.3340	35.617
7675.2983	35.6242
7676.2627	35.6338
7677.2266	35.6563
7678.1909	35.6932
7679.1553	35.7267
7680.1196	35.7238
7681.0835	35.6559
7682.0479	35.5208
7683.0122	35.3505
7683.9766	35.1971
7684.9404	35.1055
7685.9048	35.0933
7686.8691	35.147
7687.8335	35.2337
7688.7974	35.3198
7689.7617	35.3836
7690.7261	35.4165
7691.6904	35.4166
7692.6543	35.3839
7693.6187	35.3226
7694.5830	35.2455
7695.5474	35.1761
7696.5112	35.1417
7697.4756	35.1621
7698.4399	35.2389
7699.4043	35.3524
7700.3682	35.4691
7701.3325	35.5558
7702.2969	35.5935
7703.2612	35.5846
7704.2251	35.548
7705.1895	35.5046
7706.1538	35.4627
7707.1182	35.4132
7708.0820	35.3416
7709.0464	35.2474
7710.0107	35.1552
7710.9751	35.106
7711.9390	35.1324
7712.9033	35.2347
7713.8677	35.3743
7714.8320	35.4914
7715.7959	35.5385
7716.7603	35.5101
7717.7246	35.4449
7718.6890	35.3983
7719.6528	35.4076
7720.6172	35.4719
7721.5815	35.5582
7722.5459	35.6239
7723.5098	35.643
7724.4741	35.6191
7725.4385	35.5785
7726.4028	35.551
7727.3667	35.5511
7728.3311	35.5717
7729.2954	35.5896
7730.2598	35.579
7731.2236	35.527
7732.1880	35.4411
7733.1523	35.3458
7734.1167	35.271
7735.0806	35.2406
7736.0449	35.2661
7737.0093	35.3426
7737.9736	35.4481
7738.9375	35.5437
7739.9019	35.5834
7740.8662	35.5337
7741.8306	35.396
7742.7944	35.2115
7743.7588	35.0441
7744.7231	34.9514
7745.6875	34.9605
7746.6514	35.0598
7747.6157	35.206
7748.5801	35.3448
7749.5444	35.4339
7750.5083	35.4558
7751.4727	35.413
7752.4370	35.3164
7753.4014	35.1821
7754.3652	35.0375
7755.3296	34.9251
7756.2939	34.8914
7757.2583	34.9646
7758.2227	35.1336
7759.1865	35.3444
7760.1509	35.5205
7761.1152	35.5997
7762.0796	35.565
7763.0435	35.4467
7764.0078	35.2956
7764.9722	35.1552
7765.9365	35.0508
7766.9004	34.9948
7767.8647	34.9946
7768.8291	35.054
7769.7935	35.1682
7770.7573	35.3175
7771.7217	35.4683
7772.6860	35.58
7773.6504	35.6184
7774.6143	35.5682
7775.5786	35.4387
7776.5430	35.2642
7777.5073	35.0954
7778.4712	34.9854
7779.4355	34.9695
7780.3999	35.0497
7781.3643	35.1892
7782.3281	35.3283
7783.2925	35.4154
7784.2568	35.4361
7785.2212	35.4174
7786.1851	35.4023
7787.1494	35.4153
7788.1138	35.445
7789.0781	35.4541
7790.0420	35.4079
7791.0063	35.3015
7791.9707	35.1678
7792.9351	35.0622
7793.8989	35.0346
7794.8633	35.1065
7795.8276	35.2605
7796.7920	35.4461
7797.7559	35.5977
7798.7202	35.6607
7799.6846	35.6134
7800.6489	35.474

##### Extended Information
[Comments]
Sample name	
Comment
User
Division
Company	ETH Zurich

[Detailed Information]
Creation date	31/05/2016 15:50

Data array type	Linear data array
Horizontal axis	Wavenumber [cm-1]
Vertical axis	%T
Start	349.053 cm-1
End	7800.65 cm-1
Data interval	0.964233 cm-1
Data points	7729    

[Measurement Information]
Model Name	FT/IR-4100typeA
Serial Number	B111161016

Measurement Date	31/05/2016 15:48

Light Source	Standard
Detector	TGS
Accumulation	32
Resolution	4 cm-1
Zero Filling	On
Apodization	Cosine
Gain	Auto (2)
Aperture	Auto (7.1 mm)
Scanning Speed	Auto (2 mm/sec)
Filter	Auto (30000 Hz)

