[Comments]
Sample name	2462
Comment
User
Division
Company	ETHZ

[Detailed Information]
Creation date	18/01/2021 10:08
Date modified	18/01/2021 10:08

Data array type	Linear data array
Horizontal axis	Wavenumber [cm-1]
Vertical axis	%T
Start	499.955 cm-1
End	4500.08 cm-1
Data interval	0.482117 cm-1
Data points	8298    

[Measurement Information]
Model Name	FT/IR-4100typeA
Serial Number	B111161016

Accessory	ATR PRO ONE
Accessory S/N	B131461809
Incident angle	45 deg

Measurement Date	18/01/2021 09:13

Light Source	Standard
Detector	TGS
Accumulation	32
Resolution	2 cm-1
Zero Filling	On
Apodization	Cosine
Gain	Auto (32)
Aperture	Auto (5 mm)
Scanning Speed	Auto (2 mm/sec)
Filter	Auto (30000 Hz)
TITLE	2462
DATA TYPE	INFRARED SPECTRUM
ORIGIN	JASCO
OWNER	
DATE	21/01/18
TIME	10:08:34
SPECTROMETER/DATA SYSTEM	
LOCALE	8192
RESOLUTION	
DELTAX	0.482117
XUNITS	1/CM
YUNITS	TRANSMITTANCE
FIRSTX	  499.9551
LASTX	 4500.0776
NPOINTS	    8298
FIRSTY	    87.70611
MAXY	   102.01318
MINY	    47.16140
XYDATA
499.9550	87.7061
500.4372	86.91
500.9193	86.0269
501.4014	85.1954
501.8835	84.5814
502.3656	84.3237
502.8477	84.4641
503.3299	84.9184
503.8120	85.5178
504.2941	86.0834
504.7762	86.4841
505.2583	86.6661
505.7404	86.6585
506.2226	86.5545
506.7047	86.4594
507.1868	86.4248
507.6689	86.4163
508.1510	86.3435
508.6331	86.1199
509.1153	85.7075
509.5974	85.1309
510.0795	84.4698
510.5616	83.8348
511.0437	83.3237
511.5258	82.9722
512.0080	82.7238
512.4901	82.441
512.9722	81.96
513.4543	81.1714
513.9365	80.091
514.4186	78.876
514.9007	77.7702
515.3828	77.0137
515.8649	76.7604
516.3470	77.0232
516.8292	77.6573
517.3113	78.4127
517.7934	79.0513
518.2755	79.4564
518.7576	79.6545
519.2397	79.7523
519.7219	79.8467
520.2040	79.9535
520.6861	79.9888
521.1682	79.8153
521.6503	79.3363
522.1324	78.5804
522.6146	77.7173
523.0967	76.983
523.5788	76.5527
524.0609	76.4447
524.5430	76.5037
525.0251	76.4623
525.5073	76.0577
525.9894	75.1599
526.4715	73.826
526.9536	72.2241
527.4357	70.5055
527.9178	68.756
528.4000	67.0453
528.8821	65.4968
529.3642	64.3003
529.8463	63.6497
530.3284	63.6496
530.8105	64.2646
531.2927	65.3419
531.7748	66.6687
532.2569	68.0165
532.7390	69.1631
533.2211	69.9142
533.7032	70.1458
534.1854	69.8564
534.6675	69.1977
535.1496	68.4547
535.6317	67.9729
536.1138	68.0604
536.5959	68.9019
537.0781	70.5127
537.5602	72.7414
538.0423	75.3179
538.5244	77.93
539.0065	80.3081
539.4886	82.29
539.9708	83.8452
540.4529	85.048
540.9350	86.0151
541.4171	86.838
541.8992	87.5498
542.3813	88.1374
542.8635	88.5811
543.3456	88.8851
543.8277	89.0788
544.3098	89.1946
544.7919	89.2475
545.2740	89.2361
545.7562	89.1663
546.2383	89.0761
546.7204	89.0367
547.2025	89.1206
547.6846	89.3559
548.1667	89.6954
548.6489	90.0239
549.1310	90.2054
549.6131	90.1523
550.0952	89.8804
550.5773	89.5143
551.0594	89.2311
551.5416	89.1676
552.0237	89.3459
552.5058	89.659
552.9879	89.9265
553.4700	89.9903
553.9521	89.7995
554.4343	89.4324
554.9164	89.0414
555.3985	88.7603
555.8806	88.6351
556.3627	88.6191
556.8448	88.6262
557.3270	88.6001
557.8091	88.5502
558.2912	88.5315
558.7733	88.5913
559.2554	88.7236
559.7375	88.8659
560.2197	88.9371
560.7018	88.8935
561.1839	88.7607
561.6660	88.6199
562.1481	88.5594
562.6302	88.6231
563.1124	88.787
563.5945	88.9765
564.0766	89.1147
564.5587	89.1742
565.0408	89.1968
565.5229	89.267
566.0051	89.4544
566.4872	89.7614
566.9693	90.111
567.4514	90.3865
567.9335	90.5001
568.4156	90.4438
568.8978	90.2874
569.3799	90.1249
569.8620	90.0095
570.3441	89.9253
570.8262	89.8136
571.3083	89.6304
571.7905	89.386
572.2726	89.141
572.7547	88.966
573.2368	88.9004
573.7189	88.9397
574.2010	89.0537
574.6832	89.2133
575.1653	89.401
575.6474	89.6014
576.1295	89.7885
576.6116	89.9296
577.0938	90.0029
577.5759	90.0095
578.0580	89.9622
578.5401	89.8624
579.0222	89.69
579.5043	89.4204
579.9865	89.0619
580.4686	88.6792
580.9507	88.3749
581.4328	88.2312
581.9149	88.2596
582.3970	88.3993
582.8792	88.5599
583.3613	88.6741
583.8434	88.7244
584.3255	88.7292
584.8076	88.7077
585.2897	88.6531
585.7719	88.5398
586.2540	88.3565
586.7361	88.1324
587.2182	87.9339
587.7003	87.8317
588.1824	87.8593
588.6646	87.9898
589.1467	88.1474
589.6288	88.2455
590.1109	88.224
590.5930	88.069
591.0751	87.8095
591.5573	87.5012
592.0394	87.2029
592.5215	86.9562
593.0036	86.7751
593.4857	86.6488
593.9678	86.55
594.4500	86.4468
594.9321	86.313
595.4142	86.139
595.8963	85.9368
596.3784	85.7357
596.8605	85.5692
597.3427	85.4566
597.8248	85.3876
598.3069	85.3151
598.7890	85.1598
599.2711	84.8285
599.7532	84.2416
600.2354	83.3636
600.7175	82.2283
601.1996	80.9461
601.6817	79.6878
602.1638	78.6477
602.6459	77.9951
603.1281	77.8273
603.6102	78.1342
604.0923	78.7921
604.5744	79.594
605.0565	80.3133
605.5386	80.7721
606.0208	80.8865
606.5029	80.6754
606.9850	80.2394
607.4671	79.7271
607.9492	79.2988
608.4313	79.0931
608.9135	79.1966
609.3956	79.6272
609.8777	80.3349
610.3598	81.2226
610.8419	82.1736
611.3240	83.0778
611.8062	83.8469
612.2883	84.4217
612.7704	84.7731
613.2525	84.9046
613.7346	84.8572
614.2167	84.7088
614.6989	84.5575
615.1810	84.4853
615.6631	84.5119
616.1452	84.5643
616.6273	84.4877
617.1094	84.1194
617.5916	83.4099
618.0737	82.5119
618.5558	81.7435
619.0379	81.4352
619.5200	81.7704
620.0021	82.71
620.4843	84.0119
620.9664	85.3292
621.4485	86.3534
621.9306	86.9395
622.4127	87.1371
622.8948	87.114
623.3770	87.0397
623.8591	87.0095
624.3412	87.0356
624.8233	87.086
625.3054	87.1272
625.7875	87.1424
626.2697	87.1257
626.7518	87.0722
627.2339	86.9829
627.7160	86.8774
628.1981	86.7973
628.6802	86.7892
629.1624	86.8756
629.6445	87.0364
630.1266	87.2146
630.6087	87.3444
631.0908	87.3816
631.5729	87.3171
632.0551	87.1695
632.5372	86.9678
633.0193	86.7389
633.5014	86.5059
633.9835	86.2934
634.4656	86.1293
634.9478	86.0402
635.4299	86.0428
635.9120	86.1376
636.3941	86.3082
636.8762	86.526
637.3583	86.7564
637.8405	86.9629
638.3226	87.1132
638.8047	87.1853
639.2868	87.1734
639.7689	87.0872
640.2510	86.9436
640.7332	86.7561
641.2153	86.5293
641.6974	86.2644
642.1795	85.9713
642.6616	85.6781
643.1437	85.4275
643.6259	85.2613
644.1080	85.1991
644.5901	85.2253
645.0722	85.2937
645.5543	85.346
646.0364	85.3369
646.5186	85.2485
647.0007	85.0889
647.4828	84.8802
647.9649	84.6466
648.4470	84.4089
648.9291	84.1884
649.4113	84.0098
649.8934	83.8979
650.3755	83.8674
650.8576	83.9144
651.3397	84.0152
651.8218	84.1343
652.3040	84.2379
652.7861	84.3052
653.2682	84.3317
653.7503	84.3247
654.2324	84.2932
654.7145	84.2422
655.1967	84.1712
655.6788	84.079
656.1609	83.9693
656.6430	83.8544
657.1251	83.7524
657.6072	83.6801
658.0894	83.6434
658.5715	83.6318
659.0536	83.6194
659.5357	83.5747
660.0178	83.475
660.4999	83.3168
660.9821	83.1158
661.4642	82.8978
661.9463	82.684
662.4284	82.4811
662.9105	82.2831
663.3926	82.0829
663.8748	81.8878
664.3569	81.7233
664.8390	81.6208
665.3211	81.5989
665.8032	81.6547
666.2853	81.763
666.7675	81.8638
667.2496	81.8152
667.7317	81.353
668.2138	80.4088
668.6959	79.6085
669.1780	79.3403
669.6602	79.346
670.1423	79.3769
670.6244	79.332
671.1065	79.1876
671.5886	78.9623
672.0707	78.7038
672.5529	78.4692
673.0350	78.3
673.5171	78.2068
673.9992	78.1735
674.4813	78.1702
674.9634	78.1639
675.4456	78.1231
675.9277	78.0206
676.4098	77.8369
676.8919	77.5647
677.3740	77.2137
677.8561	76.8109
678.3383	76.3951
678.8204	76.0057
679.3025	75.6699
679.7846	75.3933
680.2667	75.1582
680.7488	74.9309
681.2310	74.6744
681.7131	74.3624
682.1952	73.987
682.6773	73.5595
683.1594	73.1029
683.6415	72.6416
684.1237	72.1904
684.6058	71.7458
685.0879	71.2828
685.5700	70.7596
686.0521	70.1299
686.5342	69.3599
687.0164	68.4409
687.4985	67.391
687.9806	66.2443
688.4627	65.034
688.9448	63.7786
689.4269	62.4794
689.9091	61.1259
690.3912	59.7051
690.8733	58.2062
691.3554	56.6242
691.8375	54.9657
692.3196	53.26
692.8018	51.5722
693.2839	50.0056
693.7660	48.6878
694.2481	47.7384
694.7302	47.2304
695.2123	47.1614
695.6945	47.4478
696.1766	47.9452
696.6587	48.4907
697.1408	48.9511
697.6229	49.2662
698.1050	49.4744
698.5872	49.7136
699.0693	50.1943
699.5514	51.1474
700.0335	52.7568
700.5156	55.0961
700.9977	58.09
701.4799	61.5212
701.9620	65.0874
702.4441	68.4906
702.9262	71.519
703.4083	74.0876
703.8904	76.2252
704.3726	78.0243
704.8547	79.5836
705.3368	80.9684
705.8189	82.2015
706.3010	83.2801
706.7831	84.2004
707.2653	84.975
707.7474	85.634
708.2295	86.2115
708.7116	86.7304
709.1937	87.1928
709.6758	87.583
710.1580	87.8807
710.6401	88.0758
711.1222	88.1788
711.6043	88.2194
712.0864	88.2357
712.5685	88.2582
713.0507	88.2957
713.5328	88.3306
714.0149	88.3253
714.4970	88.2403
714.9791	88.0556
715.4612	87.7857
715.9434	87.4788
716.4255	87.1977
716.9076	86.9916
717.3897	86.8721
717.8718	86.8105
718.3539	86.7546
718.8361	86.6548
719.3182	86.4854
719.8003	86.2529
720.2824	85.989
720.7645	85.7322
721.2466	85.5097
721.7288	85.3329
722.2109	85.2031
722.6930	85.1176
723.1751	85.0695
723.6572	85.0432
724.1393	85.0136
724.6215	84.9515
725.1036	84.8328
725.5857	84.6468
726.0678	84.3972
726.5499	84.0995
727.0320	83.7757
727.5142	83.4487
727.9963	83.1371
728.4784	82.8489
728.9605	82.5802
729.4426	82.3187
729.9247	82.0531
730.4069	81.7844
730.8890	81.529
731.3711	81.3113
731.8532	81.148
732.3353	81.0339
732.8174	80.9393
733.2996	80.8217
733.7817	80.6429
734.2638	80.3823
734.7459	80.0387
735.2280	79.6224
735.7101	79.1465
736.1923	78.6252
736.6744	78.0762
737.1565	77.5227
737.6386	76.9875
738.1207	76.4838
738.6028	76.0081
739.0850	75.5448
739.5671	75.0789
740.0492	74.6066
740.5313	74.1338
741.0134	73.6651
741.4955	73.1913
741.9777	72.6895
742.4598	72.1369
742.9419	71.5281
743.4240	70.8789
743.9061	70.2134
744.3882	69.5429
744.8704	68.8535
745.3525	68.1128
745.8346	67.2912
746.3167	66.3805
746.7988	65.3968
747.2809	64.3663
747.7631	63.3069
748.2452	62.2189
748.7273	61.0893
749.2094	59.9028
749.6915	58.6528
750.1736	57.3476
750.6558	56.0144
751.1379	54.7023
751.6200	53.4808
752.1021	52.4247
752.5842	51.5879
753.0663	50.9786
753.5485	50.5542
754.0306	50.2479
754.5127	50.0149
754.9948	49.8688
755.4769	49.8824
755.9590	50.1484
756.4412	50.7285
756.9233	51.6267
757.4054	52.8063
757.8875	54.2385
758.3696	55.9438
758.8517	57.9906
759.3339	60.4457
759.8160	63.3061
760.2981	66.4575
760.7802	69.6861
761.2623	72.7396
761.7444	75.4035
762.2266	77.555
762.7087	79.1745
763.1908	80.3203
763.6729	81.0881
764.1550	81.5741
764.6371	81.8546
765.1193	81.9825
765.6014	81.9935
766.0835	81.9172
766.5656	81.7857
767.0477	81.6346
767.5298	81.4981
768.0120	81.3982
768.4941	81.3359
768.9762	81.2888
769.4583	81.2191
769.9404	81.0891
770.4225	80.8781
770.9047	80.591
771.3868	80.2551
771.8689	79.9067
772.3510	79.5722
772.8331	79.2568
773.3152	78.9454
773.7974	78.6163
774.2795	78.258
774.7616	77.8789
775.2437	77.5024
775.7258	77.1526
776.2079	76.8421
776.6901	76.5712
777.1722	76.3412
777.6543	76.17
778.1364	76.0969
778.6185	76.1687
779.1006	76.4133
779.5828	76.8171
780.0649	77.3222
780.5470	77.8467
781.0291	78.3195
781.5112	78.7069
781.9933	79.0176
782.4755	79.2861
782.9576	79.5483
783.4397	79.8255
783.9218	80.1239
784.4039	80.441
784.8860	80.7724
785.3682	81.11
785.8503	81.4376
786.3324	81.7311
786.8145	81.9661
787.2966	82.1291
787.7787	82.2221
788.2609	82.2578
788.7430	82.2508
789.2251	82.2124
789.7072	82.1552
790.1893	82.098
790.6714	82.0654
791.1536	82.075
791.6357	82.1234
792.1178	82.1814
792.5999	82.2077
793.0820	82.1736
793.5641	82.0818
794.0463	81.9667
794.5284	81.8745
795.0105	81.8387
795.4926	81.8663
795.9747	81.9419
796.4568	82.0429
796.9390	82.1527
797.4211	82.2649
797.9032	82.3767
798.3853	82.4831
798.8674	82.5774
799.3495	82.6585
799.8317	82.7374
800.3138	82.8349
800.7959	82.9688
801.2780	83.1394
801.7601	83.3231
802.2422	83.4817
802.7244	83.582
803.2065	83.6143
803.6886	83.5961
804.1707	83.5587
804.6528	83.5275
805.1349	83.5088
805.6171	83.4936
806.0992	83.4722
806.5813	83.448
807.0634	83.4381
807.5455	83.4608
808.0276	83.5202
808.5098	83.6007
808.9919	83.6753
809.4740	83.7213
809.9561	83.7305
810.4382	83.7078
810.9203	83.6612
811.4025	83.5938
811.8846	83.5049
812.3667	83.3987
812.8488	83.2913
813.3309	83.2084
813.8130	83.1723
814.2952	83.1874
814.7773	83.2352
815.2594	83.2827
815.7415	83.3013
816.2236	83.2826
816.7057	83.2414
817.1879	83.2024
817.6700	83.1824
818.1521	83.1783
818.6342	83.1706
819.1163	83.1389
819.5984	83.0782
820.0806	83.0041
820.5627	82.9433
821.0448	82.9172
821.5269	82.9306
822.0090	82.9698
822.4911	83.0116
822.9733	83.0332
823.4554	83.0189
823.9375	82.9626
824.4196	82.8685
824.9017	82.7533
825.3839	82.6444
825.8660	82.5732
826.3481	82.5606
826.8302	82.6048
827.3123	82.6793
827.7944	82.7463
828.2766	82.7776
828.7587	82.77
829.2408	82.7444
829.7229	82.7291
830.2050	82.7401
830.6871	82.7713
831.1693	82.7994
831.6514	82.801
832.1335	82.7667
832.6156	82.7059
833.0977	82.6393
833.5798	82.5854
834.0620	82.5513
834.5441	82.5311
835.0262	82.5118
835.5083	82.4817
835.9904	82.4374
836.4725	82.3844
836.9547	82.3335
837.4368	82.2943
837.9189	82.2696
838.4010	82.2549
838.8831	82.2438
839.3652	82.2346
839.8474	82.2355
840.3295	82.2612
840.8116	82.324
841.2937	82.4238
841.7758	82.5463
842.2579	82.6712
842.7401	82.7857
843.2222	82.8937
843.7043	83.0126
844.1864	83.1589
844.6685	83.3335
845.1506	83.5168
845.6328	83.6788
846.1149	83.7965
846.5970	83.8666
847.0791	83.9045
847.5612	83.9319
848.0433	83.9632
848.5255	83.999
849.0076	84.0313
849.4897	84.0504
849.9718	84.0493
850.4539	84.0213
850.9360	83.9553
851.4182	83.8354
851.9003	83.6462
852.3824	83.3812
852.8645	83.0482
853.3466	82.6677
853.8287	82.2687
854.3109	81.883
854.7930	81.5422
855.2751	81.2749
855.7572	81.1032
856.2393	81.0367
856.7214	81.0677
857.2036	81.1711
857.6857	81.3101
858.1678	81.4476
858.6499	81.5567
859.1320	81.6277
859.6141	81.6674
860.0963	81.6905
860.5784	81.7071
861.0605	81.7125
861.5426	81.6861
862.0247	81.6005
862.5068	81.4388
862.9890	81.2062
863.4711	80.9319
863.9532	80.6552
864.4353	80.4077
864.9174	80.2019
865.3995	80.0335
865.8817	79.8966
866.3638	79.7992
866.8459	79.7691
867.3280	79.8447
867.8101	80.0584
868.2922	80.4225
868.7744	80.9245
869.2565	81.5327
869.7386	82.2077
870.2207	82.9112
870.7028	83.6095
871.1849	84.2738
871.6671	84.8787
872.1492	85.4031
872.6313	85.8326
873.1134	86.1618
873.5955	86.3952
874.0776	86.5462
874.5598	86.6355
875.0419	86.6897
875.5240	86.7405
876.0061	86.8221
876.4882	86.9673
876.9703	87.1993
877.4525	87.5246
877.9346	87.9285
878.4167	88.3797
878.8988	88.8422
879.3809	89.2897
879.8630	89.7136
880.3452	90.12
880.8273	90.5174
881.3094	90.9045
881.7915	91.2668
882.2736	91.5844
882.7557	91.8434
883.2379	92.0436
883.7200	92.1951
884.2021	92.3083
884.6842	92.3861
885.1663	92.4242
885.6484	92.4184
886.1306	92.3716
886.6127	92.2962
887.0948	92.2078
887.5769	92.1184
888.0590	92.0318
888.5411	91.9444
889.0233	91.8504
889.5054	91.7451
889.9875	91.6265
890.4696	91.4948
890.9517	91.3501
891.4338	91.1927
891.9160	91.022
892.3981	90.8375
892.8802	90.6385
893.3623	90.4247
893.8444	90.196
894.3265	89.9516
894.8087	89.6903
895.2908	89.411
895.7729	89.115
896.2550	88.8077
896.7371	88.4975
897.2192	88.1917
897.7014	87.8907
898.1835	87.5853
898.6656	87.2597
899.1477	86.8996
899.6298	86.4993
900.1119	86.0655
900.5941	85.6137
901.0762	85.1631
901.5583	84.732
902.0404	84.3359
902.5225	83.9874
903.0046	83.6957
903.4868	83.4636
903.9689	83.2854
904.4510	83.1466
904.9331	83.0266
905.4152	82.9038
905.8973	82.7602
906.3795	82.5831
906.8616	82.3651
907.3437	82.1008
907.8258	81.7851
908.3079	81.4126
908.7900	80.9794
909.2722	80.4862
909.7543	79.9399
910.2364	79.3539
910.7185	78.7478
911.2006	78.1486
911.6827	77.5934
912.1649	77.1314
912.6470	76.8204
913.1291	76.7151
913.6112	76.8502
914.0933	77.2283
914.5754	77.8181
915.0576	78.5666
915.5397	79.4149
916.0218	80.3101
916.5039	81.2059
916.9860	82.0585
917.4681	82.8242
917.9503	83.4665
918.4324	83.9672
918.9145	84.3335
919.3966	84.5927
919.8787	84.7779
920.3608	84.913
920.8430	85.0074
921.3251	85.0593
921.8072	85.0646
922.2893	85.0214
922.7714	84.9302
923.2535	84.7919
923.7357	84.6078
924.2178	84.3806
924.6999	84.1145
925.1820	83.8107
925.6641	83.4641
926.1462	83.0633
926.6284	82.5974
927.1105	82.0653
927.5926	81.4808
928.0747	80.8685
928.5568	80.2565
929.0389	79.6694
929.5211	79.1287
930.0032	78.6582
930.4853	78.2868
930.9674	78.0468
931.4495	77.9679
931.9316	78.0716
932.4138	78.3708
932.8959	78.8708
933.3780	79.5688
933.8601	80.4477
934.3422	81.4684
934.8243	82.5698
935.3065	83.6794
935.7886	84.7334
936.2707	85.693
936.7528	86.5489
937.2349	87.3116
937.7170	87.9944
938.1992	88.6014
938.6813	89.1258
939.1634	89.5587
939.6455	89.8993
940.1276	90.16
940.6097	90.3642
941.0919	90.5393
941.5740	90.7094
942.0561	90.8905
942.5382	91.0888
943.0203	91.3009
943.5024	91.5166
943.9846	91.723
944.4667	91.9099
944.9488	92.0737
945.4309	92.2168
945.9130	92.3442
946.3951	92.4588
946.8773	92.5596
947.3594	92.6439
947.8415	92.7115
948.3236	92.768
948.8057	92.8242
949.2878	92.891
949.7700	92.9741
950.2521	93.0698
950.7342	93.1666
951.2163	93.2493
951.6984	93.3066
952.1805	93.3357
952.6627	93.3446
953.1448	93.3479
953.6269	93.3606
954.1090	93.3895
954.5911	93.4301
955.0732	93.4679
955.5554	93.4862
956.0375	93.4742
956.5196	93.4327
957.0017	93.3735
957.4838	93.3142
957.9659	93.2722
958.4481	93.2589
958.9302	93.2775
959.4123	93.3224
959.8944	93.3791
960.3765	93.427
960.8586	93.444
961.3408	93.413
961.8229	93.3275
962.3050	93.1945
962.7871	93.0317
963.2692	92.8615
963.7513	92.7037
964.2335	92.5704
964.7156	92.4647
965.1977	92.3811
965.6798	92.3097
966.1619	92.2398
966.6440	92.164
967.1262	92.0793
967.6083	91.9854
968.0904	91.8814
968.5725	91.7627
969.0546	91.6211
969.5367	91.4492
970.0189	91.2451
970.5010	91.0155
970.9831	90.774
971.4652	90.5359
971.9473	90.3122
972.4294	90.1055
972.9116	89.9097
973.3937	89.7129
973.8758	89.5029
974.3579	89.2719
974.8400	89.0216
975.3221	88.763
975.8043	88.5133
976.2864	88.2881
976.7685	88.0942
977.2506	87.9254
977.7327	87.7641
978.2148	87.5872
978.6970	87.3727
979.1791	87.103
979.6612	86.7659
980.1433	86.3527
980.6254	85.858
981.1075	85.2826
981.5897	84.6373
982.0718	83.9457
982.5539	83.2424
983.0360	82.5659
983.5181	81.9485
984.0002	81.4082
984.4824	80.9457
984.9645	80.5484
985.4466	80.1996
985.9287	79.8859
986.4108	79.5994
986.8929	79.3326
987.3751	79.0727
987.8572	78.7994
988.3393	78.4902
988.8214	78.1293
989.3035	77.7141
989.7856	77.2537
990.2678	76.7607
990.7499	76.2418
991.2320	75.6942
991.7141	75.1101
992.1962	74.4878
992.6783	73.8438
993.1605	73.2206
993.6426	72.6856
994.1247	72.3172
994.6068	72.182
995.0889	72.3086
995.5710	72.6727
996.0532	73.2053
996.5353	73.8251
997.0174	74.4786
997.4995	75.1638
997.9816	75.9183
998.4637	76.7732
998.9459	77.7023
999.4280	78.595
999.9101	79.2747
1000.3922	79.5517
1000.8743	79.2839
1001.3564	78.4158
1001.8386	76.9861
1002.3207	75.1143
1002.8028	72.9824
1003.2849	70.8166
1003.7670	68.8624
1004.2491	67.3446
1004.7313	66.4183
1005.2134	66.13
1005.6955	66.4133
1006.1776	67.1234
1006.6597	68.0972
1007.1418	69.207
1007.6240	70.385
1008.1061	71.6108
1008.5882	72.88
1009.0703	74.1773
1009.5524	75.4688
1010.0345	76.7137
1010.5167	77.8809
1010.9988	78.9565
1011.4809	79.9401
1011.9630	80.8341
1012.4451	81.6364
1012.9272	82.3401
1013.4094	82.9394
1013.8915	83.4339
1014.3736	83.8284
1014.8557	84.1312
1015.3378	84.3508
1015.8199	84.4966
1016.3021	84.5793
1016.7842	84.609
1017.2663	84.5901
1017.7484	84.5178
1018.2305	84.3789
1018.7126	84.1629
1019.1948	83.875
1019.6769	83.5455
1020.1590	83.2268
1020.6411	82.979
1021.1232	82.8503
1021.6053	82.8634
1022.0875	83.0121
1022.5696	83.2687
1023.0517	83.5955
1023.5338	83.9537
1024.0160	84.3077
1024.4980	84.6262
1024.9802	84.8841
1025.4623	85.0652
1025.9445	85.1646
1026.4265	85.1895
1026.9087	85.1575
1027.3907	85.093
1027.8729	85.0233
1028.3550	84.9757
1028.8372	84.9738
1029.3192	85.0337
1029.8014	85.1593
1030.2834	85.3403
1030.7656	85.5534
1031.2477	85.7661
1031.7299	85.9438
1032.2119	86.0566
1032.6941	86.0858
1033.1761	86.0275
1033.6583	85.8937
1034.1404	85.7091
1034.6226	85.5044
1035.1046	85.3095
1035.5868	85.1482
1036.0688	85.0366
1036.5510	84.9841
1037.0331	84.995
1037.5153	85.0697
1037.9973	85.2039
1038.4795	85.3887
1038.9615	85.6113
1039.4437	85.8566
1039.9258	86.1094
1040.4080	86.3558
1040.8900	86.5849
1041.3722	86.7894
1041.8542	86.966
1042.3364	87.1141
1042.8185	87.2338
1043.3007	87.3242
1043.7827	87.3848
1044.2649	87.4182
1044.7469	87.4325
1045.2291	87.4398
1045.7112	87.4513
1046.1934	87.4718
1046.6754	87.4986
1047.1576	87.526
1047.6396	87.5515
1048.1218	87.5793
1048.6039	87.6162
1049.0861	87.6638
1049.5681	87.7131
1050.0503	87.7465
1050.5323	87.7469
1051.0145	87.7085
1051.4966	87.641
1051.9788	87.5635
1052.4608	87.4937
1052.9430	87.4372
1053.4250	87.3857
1053.9072	87.3234
1054.3893	87.2385
1054.8715	87.1315
1055.3535	87.0145
1055.8357	86.9024
1056.3177	86.801
1056.7999	86.6997
1057.2820	86.5751
1057.7642	86.4034
1058.2462	86.1747
1058.7284	85.8994
1059.2104	85.6022
1059.6926	85.3066
1060.1747	85.0195
1060.6569	84.7273
1061.1389	84.4037
1061.6211	84.0263
1062.1031	83.5891
1062.5853	83.103
1063.0674	82.585
1063.5496	82.0434
1064.0316	81.4708
1064.5138	80.8478
1064.9958	80.1554
1065.4780	79.3872
1065.9601	78.5547
1066.4423	77.6847
1066.9243	76.8134
1067.4065	75.9823
1067.8885	75.2382
1068.3707	74.6319
1068.8528	74.2126
1069.3350	74.0154
1069.8170	74.0482
1070.2992	74.2829
1070.7813	74.6596
1071.2634	75.0998
1071.7455	75.5239
1072.2277	75.8642
1072.7097	76.0719
1073.1919	76.1169
1073.6740	75.9851
1074.1561	75.6765
1074.6382	75.203
1075.1204	74.5862
1075.6024	73.8549
1076.0846	73.0415
1076.5667	72.1805
1077.0488	71.309
1077.5309	70.4666
1078.0131	69.6948
1078.4951	69.0325
1078.9773	68.51
1079.4594	68.1426
1079.9415	67.9268
1080.4236	67.8392
1080.9058	67.8398
1081.3878	67.8774
1081.8700	67.8986
1082.3521	67.8578
1082.8342	67.7255
1083.3163	67.4936
1083.7985	67.1737
1084.2805	66.7895
1084.7627	66.3658
1085.2448	65.92
1085.7269	65.4585
1086.2090	64.9811
1086.6912	64.4887
1087.1732	63.9898
1087.6554	63.5021
1088.1375	63.048
1088.6196	62.6478
1089.1017	62.3155
1089.5839	62.0586
1090.0659	61.8804
1090.5481	61.783
1091.0302	61.767
1091.5123	61.8293
1091.9944	61.9608
1092.4766	62.1474
1092.9586	62.3734
1093.4408	62.6258
1093.9229	62.8974
1094.4050	63.1867
1094.8871	63.4971
1095.3693	63.834
1095.8513	64.2038
1096.3335	64.6103
1096.8156	65.0526
1097.2977	65.523
1097.7798	66.0076
1098.2620	66.4898
1098.7440	66.9559
1099.2262	67.399
1099.7083	67.8217
1100.1904	68.2336
1100.6725	68.6478
1101.1547	69.0753
1101.6367	69.5209
1102.1189	69.9814
1102.6010	70.4462
1103.0831	70.9017
1103.5652	71.3373
1104.0474	71.7505
1104.5294	72.1477
1105.0116	72.5408
1105.4937	72.9411
1105.9758	73.354
1106.4579	73.7791
1106.9401	74.2131
1107.4221	74.6545
1107.9043	75.1055
1108.3864	75.5698
1108.8685	76.0481
1109.3506	76.5359
1109.8328	77.0254
1110.3148	77.5108
1110.7970	77.9926
1111.2791	78.4787
1111.7612	78.9786
1112.2433	79.4969
1112.7255	80.0282
1113.2075	80.5585
1113.6897	81.0718
1114.1718	81.5586
1114.6539	82.0217
1115.1360	82.4738
1115.6182	82.9305
1116.1002	83.4001
1116.5824	83.878
1117.0645	84.348
1117.5466	84.7909
1118.0287	85.1936
1118.5109	85.5557
1118.9929	85.8866
1119.4751	86.198
1119.9572	86.4942
1120.4393	86.7691
1120.9214	87.0104
1121.4036	87.208
1121.8856	87.3613
1122.3678	87.4802
1122.8499	87.5792
1123.3320	87.67
1123.8141	87.7574
1124.2963	87.841
1124.7783	87.9197
1125.2605	87.9949
1125.7426	88.0695
1126.2247	88.1457
1126.7068	88.2228
1127.1890	88.2998
1127.6710	88.3783
1128.1532	88.4651
1128.6353	88.5684
1129.1174	88.6926
1129.5995	88.8329
1130.0817	88.9767
1130.5637	89.1086
1131.0459	89.2183
1131.5280	89.3042
1132.0101	89.3723
1132.4922	89.4308
1132.9744	89.4854
1133.4564	89.537
1133.9386	89.5819
1134.4207	89.6141
1134.9028	89.6274
1135.3849	89.618
1135.8671	89.5857
1136.3491	89.535
1136.8313	89.472
1137.3134	89.4004
1137.7955	89.317
1138.2776	89.2113
1138.7598	89.07
1139.2418	88.8841
1139.7240	88.6543
1140.2061	88.3905
1140.6882	88.1061
1141.1703	87.8108
1141.6525	87.5071
1142.1345	87.1922
1142.6167	86.8633
1143.0988	86.5226
1143.5809	86.179
1144.0630	85.8475
1144.5452	85.5467
1145.0272	85.2956
1145.5094	85.1103
1145.9915	85.0007
1146.4736	84.967
1146.9557	84.9998
1147.4379	85.084
1147.9199	85.2037
1148.4021	85.3459
1148.8842	85.5
1149.3663	85.6541
1149.8484	85.7912
1150.3306	85.8913
1150.8126	85.9384
1151.2948	85.928
1151.7769	85.8718
1152.2590	85.7935
1152.7411	85.7189
1153.2233	85.6644
1153.7053	85.6313
1154.1875	85.6064
1154.6696	85.5697
1155.1517	85.5034
1155.6338	85.3983
1156.1160	85.2563
1156.5980	85.0882
1157.0802	84.9118
1157.5623	84.749
1158.0444	84.6245
1158.5265	84.5634
1159.0087	84.5871
1159.4907	84.7071
1159.9729	84.9197
1160.4550	85.2052
1160.9371	85.5324
1161.4192	85.8678
1161.9014	86.1852
1162.3834	86.4706
1162.8656	86.7198
1163.3477	86.932
1163.8298	87.104
1164.3119	87.2294
1164.7941	87.302
1165.2761	87.3223
1165.7583	87.3
1166.2404	87.2528
1166.7225	87.1998
1167.2046	87.1564
1167.6868	87.1304
1168.1688	87.1226
1168.6510	87.1284
1169.1331	87.1399
1169.6152	87.1475
1170.0973	87.1419
1170.5795	87.1172
1171.0615	87.0719
1171.5437	87.0091
1172.0258	86.932
1172.5079	86.8388
1172.9900	86.7193
1173.4722	86.5565
1173.9542	86.3331
1174.4364	86.0395
1174.9185	85.6795
1175.4006	85.2694
1175.8827	84.8319
1176.3649	84.3885
1176.8469	83.953
1177.3291	83.5313
1177.8112	83.1244
1178.2933	82.7351
1178.7754	82.372
1179.2576	82.0517
1179.7396	81.7951
1180.2218	81.623
1180.7039	81.5505
1181.1860	81.5848
1181.6681	81.7244
1182.1503	81.9593
1182.6323	82.271
1183.1145	82.6336
1183.5966	83.0193
1184.0787	83.4077
1184.5608	83.7964
1185.0430	84.2053
1185.5250	84.6697
1186.0072	85.2221
1186.4893	85.8729
1186.9714	86.5994
1187.4535	87.3506
1187.9357	88.0659
1188.4177	88.6963
1188.8999	89.2185
1189.3820	89.6355
1189.8641	89.9673
1190.3462	90.2391
1190.8284	90.4712
1191.3104	90.6746
1191.7926	90.8509
1192.2747	90.9952
1192.7568	91.1012
1193.2389	91.1652
1193.7211	91.1885
1194.2031	91.1759
1194.6853	91.1323
1195.1674	91.0586
1195.6495	90.9524
1196.1316	90.8111
1196.6138	90.6364
1197.0958	90.435
1197.5780	90.2153
1198.0601	89.9819
1198.5422	89.7326
1199.0243	89.4596
1199.5065	89.1547
1199.9885	88.8134
1200.4707	88.4355
1200.9528	88.022
1201.4349	87.5707
1201.9170	87.0745
1202.3992	86.5237
1202.8812	85.91
1203.3634	85.2318
1203.8455	84.4968
1204.3276	83.7247
1204.8097	82.9467
1205.2919	82.2037
1205.7739	81.5424
1206.2561	81.0072
1206.7382	80.632
1207.2203	80.4337
1207.7024	80.4088
1208.1846	80.5366
1208.6666	80.7846
1209.1488	81.1153
1209.6309	81.4918
1210.1130	81.8803
1210.5951	82.2511
1211.0773	82.5793
1211.5593	82.8452
1212.0415	83.0363
1212.5236	83.1486
1213.0057	83.1864
1213.4878	83.1594
1213.9700	83.0794
1214.4520	82.9567
1214.9342	82.7987
1215.4163	82.6097
1215.8984	82.3932
1216.3805	82.1525
1216.8627	81.8907
1217.3447	81.6102
1217.8269	81.3124
1218.3090	80.9982
1218.7911	80.6704
1219.2732	80.3348
1219.7554	79.9993
1220.2374	79.6713
1220.7196	79.3541
1221.2017	79.0457
1221.6838	78.7407
1222.1659	78.4342
1222.6481	78.1259
1223.1301	77.8201
1223.6123	77.5235
1224.0944	77.2406
1224.5765	76.9708
1225.0586	76.7084
1225.5408	76.4462
1226.0228	76.1792
1226.5050	75.9076
1226.9871	75.6367
1227.4692	75.3746
1227.9513	75.1292
1228.4335	74.9059
1228.9155	74.7066
1229.3977	74.5299
1229.8798	74.3719
1230.3619	74.2282
1230.8440	74.0947
1231.3262	73.9697
1231.8082	73.8544
1232.2904	73.7517
1232.7725	73.6652
1233.2546	73.5968
1233.7367	73.5453
1234.2189	73.5068
1234.7009	73.4752
1235.1831	73.4444
1235.6652	73.4096
1236.1473	73.3688
1236.6294	73.3222
1237.1116	73.2722
1237.5936	73.2224
1238.0758	73.1759
1238.5579	73.1347
1239.0400	73.0981
1239.5221	73.0625
1240.0043	73.0228
1240.4863	72.9733
1240.9685	72.9107
1241.4506	72.8352
1241.9327	72.7507
1242.4148	72.6626
1242.8970	72.5744
1243.3790	72.4858
1243.8612	72.3926
1244.3433	72.2898
1244.8254	72.1757
1245.3075	72.0531
1245.7897	71.9281
1246.2717	71.8063
1246.7539	71.6887
1247.2360	71.5726
1247.7181	71.4539
1248.2002	71.3319
1248.6824	71.2103
1249.1644	71.0952
1249.6466	70.9912
1250.1287	70.8984
1250.6108	70.8129
1251.0929	70.7301
1251.5751	70.6473
1252.0571	70.5648
1252.5393	70.484
1253.0214	70.4055
1253.5035	70.3286
1253.9856	70.2532
1254.4678	70.1807
1254.9498	70.1144
1255.4320	70.0567
1255.9141	70.007
1256.3962	69.9615
1256.8783	69.9157
1257.3605	69.8682
1257.8425	69.8225
1258.3247	69.7853
1258.8068	69.7617
1259.2889	69.7514
1259.7710	69.747
1260.2532	69.7378
1260.7352	69.7148
1261.2174	69.6763
1261.6995	69.6283
1262.1816	69.5806
1262.6637	69.5418
1263.1459	69.5154
1263.6279	69.4992
1264.1101	69.4871
1264.5922	69.4734
1265.0743	69.4545
1265.5564	69.4293
1266.0386	69.3983
1266.5206	69.3621
1267.0028	69.3218
1267.4849	69.2788
1267.9670	69.2365
1268.4491	69.1993
1268.9313	69.1727
1269.4133	69.1611
1269.8955	69.1677
1270.3776	69.1935
1270.8597	69.2385
1271.3418	69.3012
1271.8240	69.3804
1272.3060	69.4744
1272.7882	69.5823
1273.2703	69.7032
1273.7524	69.8363
1274.2345	69.9808
1274.7167	70.1355
1275.1987	70.2991
1275.6809	70.4708
1276.1630	70.65
1276.6451	70.8361
1277.1272	71.0288
1277.6094	71.2282
1278.0914	71.4358
1278.5736	71.6561
1279.0557	71.8962
1279.5378	72.1649
1280.0199	72.4705
1280.5021	72.818
1280.9841	73.2076
1281.4663	73.6349
1281.9484	74.0935
1282.4305	74.5773
1282.9126	75.0822
1283.3948	75.6055
1283.8768	76.1441
1284.3590	76.6921
1284.8411	77.2412
1285.3232	77.783
1285.8053	78.3126
1286.2875	78.8297
1286.7695	79.3374
1287.2517	79.8374
1287.7338	80.3262
1288.2159	80.7935
1288.6980	81.2258
1289.1802	81.6127
1289.6622	81.9508
1290.1444	82.2443
1290.6265	82.5016
1291.1086	82.7302
1291.5907	82.9334
1292.0729	83.1101
1292.5549	83.2576
1293.0371	83.375
1293.5192	83.4641
1294.0013	83.5283
1294.4834	83.5714
1294.9656	83.5965
1295.4476	83.6083
1295.9298	83.614
1296.4119	83.6242
1296.8940	83.6504
1297.3761	83.7006
1297.8583	83.7762
1298.3403	83.8721
1298.8225	83.9796
1299.3046	84.0903
1299.7867	84.1997
1300.2688	84.3075
1300.7510	84.4158
1301.2330	84.5257
1301.7152	84.6346
1302.1973	84.7359
1302.6794	84.8224
1303.1615	84.8893
1303.6437	84.9383
1304.1257	84.9775
1304.6079	85.0192
1305.0900	85.0766
1305.5721	85.1601
1306.0542	85.2763
1306.5364	85.4281
1307.0184	85.6153
1307.5006	85.8339
1307.9827	86.0756
1308.4648	86.3277
1308.9469	86.5752
1309.4291	86.8044
1309.9111	87.0058
1310.3933	87.1752
1310.8754	87.3121
1311.3575	87.4174
1311.8396	87.4911
1312.3218	87.532
1312.8038	87.5386
1313.2860	87.511
1313.7681	87.4525
1314.2502	87.3686
1314.7323	87.2657
1315.2145	87.1486
1315.6965	87.0182
1316.1787	86.8717
1316.6608	86.703
1317.1429	86.5052
1317.6250	86.2723
1318.1072	86.0026
1318.5892	85.7005
1319.0714	85.3775
1319.5535	85.0506
1320.0356	84.7379
1320.5177	84.453
1320.9999	84.2018
1321.4819	83.9827
1321.9641	83.7898
1322.4462	83.6177
1322.9283	83.4662
1323.4104	83.3435
1323.8926	83.2656
1324.3746	83.2545
1324.8568	83.3324
1325.3389	83.5164
1325.8210	83.8125
1326.3031	84.2105
1326.7853	84.6836
1327.2673	85.193
1327.7495	85.6961
1328.2316	86.1581
1328.7137	86.5588
1329.1958	86.8938
1329.6780	87.1694
1330.1600	87.3937
1330.6422	87.5713
1331.1243	87.7022
1331.6064	87.7865
1332.0885	87.8298
1332.5707	87.8455
1333.0527	87.8517
1333.5349	87.8649
1334.0170	87.8945
1334.4991	87.941
1334.9812	88
1335.4634	88.0665
1335.9454	88.1389
1336.4276	88.2179
1336.9097	88.304
1337.3918	88.3939
1337.8739	88.4808
1338.3561	88.5559
1338.8381	88.6132
1339.3203	88.6527
1339.8024	88.6807
1340.2845	88.7061
1340.7666	88.7348
1341.2488	88.766
1341.7308	88.794
1342.2130	88.8109
1342.6951	88.8099
1343.1772	88.7864
1343.6593	88.739
1344.1415	88.6681
1344.6235	88.5748
1345.1057	88.4586
1345.5878	88.3184
1346.0699	88.1532
1346.5520	87.9653
1347.0342	87.7609
1347.5162	87.5504
1347.9984	87.3473
1348.4805	87.1672
1348.9626	87.0256
1349.4447	86.9346
1349.9269	86.9006
1350.4089	86.9221
1350.8911	86.9898
1351.3732	87.0894
1351.8553	87.2036
1352.3374	87.3164
1352.8196	87.4162
1353.3016	87.4971
1353.7838	87.5594
1354.2659	87.6072
1354.7480	87.6464
1355.2301	87.6815
1355.7123	87.7145
1356.1943	87.7451
1356.6765	87.7725
1357.1586	87.7968
1357.6407	87.818
1358.1228	87.8331
1358.6050	87.833
1359.0870	87.8034
1359.5692	87.7286
1360.0513	87.5966
1360.5334	87.3973
1361.0155	87.1122
1361.4977	86.6988
1361.9797	86.0864
1362.4619	85.2052
1362.9440	84.0454
1363.4261	82.7045
1363.9082	81.364
1364.3904	80.216
1364.8724	79.4083
1365.3546	79.0347
1365.8367	79.1388
1366.3188	79.7052
1366.8009	80.6454
1367.2831	81.8005
1367.7651	82.9728
1368.2473	83.9776
1368.7294	84.693
1369.2115	85.0828
1369.6936	85.1872
1370.1758	85.0868
1370.6578	84.8641
1371.1400	84.58
1371.6221	84.2681
1372.1042	83.9405
1372.5863	83.5978
1373.0685	83.241
1373.5505	82.8836
1374.0327	82.5589
1374.5148	82.3118
1374.9969	82.1781
1375.4790	82.171
1375.9612	82.2876
1376.4432	82.5206
1376.9254	82.8632
1377.4075	83.3029
1377.8896	83.8145
1378.3717	84.3583
1378.8539	84.8905
1379.3359	85.3754
1379.8181	85.7912
1380.3002	86.1261
1380.7823	86.371
1381.2644	86.517
1381.7466	86.5565
1382.2286	86.4877
1382.7108	86.3176
1383.1929	86.064
1383.6750	85.755
1384.1571	85.4239
1384.6393	85.1009
1385.1213	84.8072
1385.6035	84.556
1386.0856	84.3605
1386.5677	84.241
1387.0498	84.2213
1387.5320	84.3108
1388.0140	84.4911
1388.4962	84.7307
1388.9783	85.0119
1389.4604	85.3397
1389.9425	85.7306
1390.4247	86.1927
1390.9067	86.7095
1391.3889	87.2389
1391.8710	87.7338
1392.3531	88.1636
1392.8352	88.5203
1393.3174	88.8089
1393.7994	89.0358
1394.2816	89.2035
1394.7637	89.3133
1395.2458	89.3734
1395.7279	89.399
1396.2101	89.405
1396.6921	89.4001
1397.1743	89.3878
1397.6564	89.3688
1398.1385	89.343
1398.6206	89.3116
1399.1028	89.2766
1399.5848	89.2395
1400.0670	89.2
1400.5491	89.1562
1401.0313	89.1068
1401.5133	89.0538
1401.9955	89.0029
1402.4775	88.963
1402.9597	88.9426
1403.4418	88.9453
1403.9240	88.9664
1404.4060	88.9915
1404.8882	89.0017
1405.3702	88.9837
1405.8524	88.937
1406.3345	88.871
1406.8167	88.7957
1407.2987	88.7168
1407.7809	88.6352
1408.2629	88.5493
1408.7451	88.4569
1409.2272	88.3549
1409.7094	88.2405
1410.1914	88.1102
1410.6736	87.9614
1411.1556	87.7918
1411.6378	87.5993
1412.1199	87.3828
1412.6021	87.1437
1413.0841	86.8872
1413.5663	86.6199
1414.0483	86.3449
1414.5305	86.0579
1415.0126	85.7485
1415.4948	85.4091
1415.9768	85.0444
1416.4590	84.6721
1416.9410	84.3109
1417.4232	83.9638
1417.9053	83.609
1418.3875	83.2087
1418.8695	82.7437
1419.3517	82.2589
1419.8337	81.8417
1420.3159	81.5365
1420.7980	81.3228
1421.2802	81.1612
1421.7622	81.0267
1422.2444	80.9143
1422.7264	80.8352
1423.2086	80.8069
1423.6907	80.8384
1424.1729	80.9201
1424.6549	81.0324
1425.1371	81.1624
1425.6191	81.3111
1426.1013	81.4868
1426.5834	81.6959
1427.0656	81.9389
1427.5476	82.2134
1428.0298	82.5231
1428.5118	82.8864
1428.9940	83.3327
1429.4761	83.8816
1429.9583	84.516
1430.4403	85.1804
1430.9225	85.8189
1431.4045	86.4107
1431.8867	86.9689
1432.3688	87.5138
1432.8510	88.0465
1433.3330	88.5428
1433.8152	88.972
1434.2972	89.3226
1434.7794	89.6085
1435.2615	89.859
1435.7437	90.101
1436.2257	90.3388
1436.7079	90.5392
1437.1899	90.663
1437.6721	90.7109
1438.1542	90.7096
1438.6364	90.6784
1439.1184	90.6221
1439.6006	90.5369
1440.0826	90.4169
1440.5648	90.2575
1441.0469	90.0558
1441.5291	89.8103
1442.0111	89.5195
1442.4933	89.1809
1442.9753	88.7918
1443.4575	88.3514
1443.9396	87.8655
1444.4218	87.3506
1444.9038	86.831
1445.3860	86.3279
1445.8680	85.8459
1446.3502	85.367
1446.8323	84.8557
1447.3145	84.2777
1447.7965	83.6235
1448.2787	82.9114
1448.7607	82.1572
1449.2429	81.344
1449.7250	80.4349
1450.2072	79.4147
1450.6892	78.3384
1451.1714	77.3595
1451.6534	76.7011
1452.1356	76.5496
1452.6177	76.938
1453.0999	77.729
1453.5819	78.7079
1454.0641	79.6901
1454.5461	80.5756
1455.0283	81.3539
1455.5104	82.091
1455.9926	82.9011
1456.4746	83.8759
1456.9568	84.9664
1457.4388	85.9768
1457.9210	86.7632
1458.4031	87.341
1458.8853	87.7897
1459.3673	88.162
1459.8495	88.4733
1460.3315	88.7222
1460.8137	88.9076
1461.2958	89.0362
1461.7780	89.12
1462.2600	89.1699
1462.7422	89.1892
1463.2242	89.1693
1463.7064	89.0909
1464.1885	88.9335
1464.6707	88.6997
1465.1527	88.4346
1465.6349	88.2014
1466.1169	88.0372
1466.5991	87.9476
1467.0812	87.9286
1467.5634	87.9796
1468.0454	88.1009
1468.5276	88.2854
1469.0096	88.5155
1469.4918	88.7707
1469.9739	89.0379
1470.4561	89.3165
1470.9381	89.6185
1471.4203	89.9646
1471.9023	90.3702
1472.3845	90.8135
1472.8666	91.2267
1473.3488	91.5523
1473.8308	91.7882
1474.3130	91.9631
1474.7950	92.1036
1475.2772	92.2234
1475.7593	92.3238
1476.2415	92.3996
1476.7235	92.4467
1477.2057	92.468
1477.6877	92.4713
1478.1699	92.4627
1478.6520	92.4452
1479.1342	92.4199
1479.6162	92.3876
1480.0984	92.3483
1480.5804	92.3001
1481.0626	92.2395
1481.5447	92.1632
1482.0269	92.0705
1482.5089	91.962
1482.9911	91.8384
1483.4731	91.6994
1483.9553	91.5455
1484.4374	91.3792
1484.9196	91.2025
1485.4016	91.0125
1485.8838	90.7985
1486.3658	90.5481
1486.8480	90.2618
1487.3301	89.9618
1487.8123	89.6786
1488.2943	89.4224
1488.7765	89.1677
1489.2585	88.858
1489.7407	88.4348
1490.2228	87.8834
1490.7050	87.2494
1491.1870	86.5832
1491.6692	85.8892
1492.1512	85.1454
1492.6334	84.3475
1493.1155	83.5302
1493.5977	82.7574
1494.0797	82.0998
1494.5619	81.6209
1495.0439	81.377
1495.5261	81.409
1496.0082	81.7092
1496.4904	82.2038
1496.9724	82.8128
1497.4546	83.524
1497.9366	84.3779
1498.4188	85.3841
1498.9009	86.4513
1499.3831	87.4096
1499.8651	88.128
1500.3473	88.5958
1500.8293	88.8879
1501.3115	89.0874
1501.7936	89.239
1502.2758	89.3479
1502.7578	89.4053
1503.2400	89.4137
1503.7220	89.3912
1504.2042	89.3591
1504.6863	89.3319
1505.1685	89.3119
1505.6505	89.2863
1506.1327	89.2313
1506.6147	89.1367
1507.0969	89.0269
1507.5790	88.93
1508.0612	88.8534
1508.5432	88.7961
1509.0254	88.7574
1509.5074	88.7365
1509.9896	88.7305
1510.4717	88.7352
1510.9539	88.7465
1511.4359	88.7616
1511.9181	88.7789
1512.4001	88.797
1512.8823	88.8155
1513.3644	88.8344
1513.8466	88.855
1514.3286	88.8788
1514.8108	88.9084
1515.2928	88.9484
1515.7750	89.0073
1516.2571	89.0946
1516.7393	89.2097
1517.2213	89.333
1517.7035	89.4393
1518.1855	89.5193
1518.6677	89.5785
1519.1498	89.6259
1519.6320	89.6706
1520.1140	89.7245
1520.5962	89.8093
1521.0782	89.9505
1521.5604	90.1425
1522.0425	90.3382
1522.5247	90.4985
1523.0067	90.6184
1523.4889	90.7123
1523.9709	90.8014
1524.4531	90.908
1524.9352	91.0461
1525.4174	91.2107
1525.8994	91.3788
1526.3816	91.5289
1526.8636	91.6596
1527.3458	91.7872
1527.8279	91.9284
1528.3101	92.0871
1528.7921	92.2529
1529.2743	92.4113
1529.7563	92.5545
1530.2385	92.6819
1530.7206	92.796
1531.2028	92.8982
1531.6848	92.9908
1532.1670	93.0803
1532.6490	93.1793
1533.1312	93.2988
1533.6133	93.4335
1534.0955	93.5627
1534.5775	93.6716
1535.0597	93.7642
1535.5417	93.8527
1536.0239	93.9449
1536.5060	94.0406
1536.9882	94.1338
1537.4702	94.2169
1537.9524	94.2857
1538.4344	94.3433
1538.9166	94.4022
1539.3987	94.4751
1539.8809	94.557
1540.3629	94.6321
1540.8451	94.6961
1541.3271	94.7554
1541.8093	94.8155
1542.2914	94.8745
1542.7736	94.9263
1543.2556	94.9662
1543.7378	94.9945
1544.2198	95.0156
1544.7020	95.0365
1545.1841	95.0634
1545.6663	95.0986
1546.1483	95.139
1546.6305	95.1788
1547.1125	95.2135
1547.5947	95.2405
1548.0768	95.2596
1548.5590	95.2728
1549.0410	95.2854
1549.5232	95.3044
1550.0052	95.3338
1550.4874	95.3705
1550.9695	95.4069
1551.4517	95.4376
1551.9337	95.4622
1552.4159	95.4841
1552.8979	95.5089
1553.3801	95.544
1553.8622	95.5946
1554.3444	95.6585
1554.8264	95.7261
1555.3086	95.7918
1555.7906	95.858
1556.2728	95.931
1556.7549	96.0163
1557.2371	96.114
1557.7191	96.2106
1558.2013	96.2697
1558.6833	96.2532
1559.1655	96.1965
1559.6476	96.1796
1560.1298	96.214
1560.6118	96.2675
1561.0940	96.3168
1561.5760	96.3546
1562.0582	96.3821
1562.5403	96.4028
1563.0225	96.42
1563.5045	96.4363
1563.9867	96.4533
1564.4688	96.4715
1564.9509	96.4914
1565.4330	96.5131
1565.9152	96.5374
1566.3972	96.5649
1566.8794	96.5963
1567.3615	96.6305
1567.8436	96.6646
1568.3257	96.692
1568.8079	96.7026
1569.2899	96.6902
1569.7721	96.6643
1570.2542	96.6457
1570.7363	96.6462
1571.2184	96.6646
1571.7006	96.6938
1572.1826	96.7258
1572.6648	96.754
1573.1469	96.7741
1573.6290	96.7855
1574.1111	96.7896
1574.5933	96.7879
1575.0753	96.7786
1575.5575	96.7565
1576.0396	96.7182
1576.5217	96.6713
1577.0038	96.63
1577.4860	96.6012
1577.9680	96.5841
1578.4502	96.5757
1578.9323	96.5726
1579.4144	96.569
1579.8965	96.5555
1580.3787	96.5199
1580.8607	96.4491
1581.3429	96.3315
1581.8250	96.16
1582.3071	95.935
1582.7892	95.6706
1583.2714	95.3963
1583.7534	95.1551
1584.2356	94.993
1584.7177	94.9465
1585.1998	95.0296
1585.6819	95.2273
1586.1641	95.5003
1586.6461	95.7978
1587.1283	96.0748
1587.6104	96.3026
1588.0925	96.4721
1588.5746	96.5889
1589.0568	96.6649
1589.5388	96.7118
1590.0210	96.7372
1590.5031	96.7444
1590.9852	96.7351
1591.4673	96.7118
1591.9495	96.679
1592.4315	96.6417
1592.9137	96.603
1593.3958	96.5613
1593.8779	96.511
1594.3600	96.4442
1594.8422	96.3555
1595.3242	96.244
1595.8064	96.1128
1596.2885	95.9666
1596.7706	95.8091
1597.2527	95.6441
1597.7349	95.4777
1598.2169	95.3194
1598.6991	95.1812
1599.1812	95.0737
1599.6633	95.0026
1600.1454	94.9668
1600.6276	94.9597
1601.1096	94.973
1601.5918	95.0001
1602.0739	95.0367
1602.5560	95.0798
1603.0381	95.1253
1603.5203	95.1684
1604.0023	95.2054
1604.4845	95.236
1604.9666	95.2635
1605.4487	95.2924
1605.9308	95.3255
1606.4130	95.3627
1606.8950	95.4009
1607.3772	95.4371
1607.8593	95.4711
1608.3414	95.5063
1608.8235	95.5492
1609.3057	95.6066
1609.7877	95.6817
1610.2699	95.7728
1610.7520	95.8736
1611.2341	95.977
1611.7162	96.0774
1612.1984	96.1711
1612.6804	96.2562
1613.1626	96.3319
1613.6447	96.3986
1614.1268	96.4577
1614.6089	96.5118
1615.0911	96.5637
1615.5731	96.6156
1616.0553	96.6654
1616.5374	96.705
1617.0195	96.7252
1617.5016	96.7273
1617.9838	96.7202
1618.4658	96.7111
1618.9480	96.7042
1619.4301	96.7018
1619.9122	96.7051
1620.3943	96.7142
1620.8765	96.7273
1621.3585	96.7421
1621.8407	96.7553
1622.3228	96.7623
1622.8049	96.7558
1623.2870	96.7305
1623.7692	96.6908
1624.2512	96.651
1624.7334	96.6243
1625.2155	96.6165
1625.6976	96.6278
1626.1797	96.6548
1626.6619	96.6898
1627.1439	96.7196
1627.6261	96.7295
1628.1082	96.7121
1628.5903	96.6739
1629.0724	96.6287
1629.5546	96.5884
1630.0366	96.5601
1630.5188	96.5474
1631.0009	96.5507
1631.4830	96.5672
1631.9651	96.5915
1632.4473	96.6177
1632.9293	96.6423
1633.4115	96.6643
1633.8936	96.6827
1634.3757	96.6932
1634.8578	96.6856
1635.3400	96.6507
1635.8220	96.5964
1636.3042	96.545
1636.7863	96.5097
1637.2684	96.4912
1637.7505	96.486
1638.2327	96.4901
1638.7147	96.4993
1639.1969	96.5088
1639.6790	96.5135
1640.1611	96.5096
1640.6432	96.4964
1641.1254	96.4772
1641.6074	96.4582
1642.0896	96.4464
1642.5717	96.4454
1643.0538	96.4545
1643.5359	96.4696
1644.0181	96.4857
1644.5001	96.4977
1644.9823	96.5001
1645.4644	96.4861
1645.9465	96.451
1646.4286	96.3982
1646.9108	96.3428
1647.3928	96.3022
1647.8750	96.2841
1648.3571	96.2856
1648.8392	96.2988
1649.3213	96.3158
1649.8035	96.3321
1650.2855	96.3458
1650.7677	96.3572
1651.2498	96.3664
1651.7319	96.3699
1652.2140	96.3517
1652.6962	96.2777
1653.1782	96.1423
1653.6604	96.022
1654.1425	95.9595
1654.6246	95.933
1655.1067	95.9194
1655.5889	95.9078
1656.0709	95.8925
1656.5531	95.8707
1657.0352	95.8415
1657.5173	95.8062
1657.9994	95.7683
1658.4816	95.7316
1658.9636	95.6985
1659.4458	95.6692
1659.9279	95.6428
1660.4100	95.6187
1660.8921	95.5964
1661.3743	95.5745
1661.8563	95.5475
1662.3385	95.5056
1662.8206	95.4405
1663.3027	95.3538
1663.7848	95.2554
1664.2670	95.1547
1664.7490	95.0561
1665.2312	94.9615
1665.7133	94.8731
1666.1954	94.7938
1666.6775	94.7254
1667.1597	94.6663
1667.6417	94.6106
1668.1239	94.5483
1668.6060	94.4701
1669.0881	94.3745
1669.5702	94.2717
1670.0524	94.1733
1670.5344	94.0814
1671.0166	93.9911
1671.4987	93.8991
1671.9808	93.8075
1672.4629	93.721
1672.9451	93.6424
1673.4271	93.5703
1673.9093	93.4999
1674.3914	93.4246
1674.8735	93.339
1675.3556	93.2445
1675.8378	93.1498
1676.3198	93.0611
1676.8020	92.9773
1677.2841	92.8949
1677.7662	92.8108
1678.2483	92.7221
1678.7305	92.6257
1679.2125	92.5193
1679.6947	92.4046
1680.1768	92.2893
1680.6589	92.1835
1681.1410	92.0942
1681.6232	92.0226
1682.1052	91.9664
1682.5874	91.9221
1683.0695	91.8839
1683.5516	91.8369
1684.0337	91.7514
1684.5159	91.6154
1684.9979	91.4619
1685.4801	91.3194
1685.9622	91.1897
1686.4443	91.0665
1686.9264	90.9448
1687.4086	90.8223
1687.8906	90.6978
1688.3728	90.5709
1688.8549	90.4417
1689.3370	90.3107
1689.8191	90.1789
1690.3013	90.0463
1690.7833	89.9118
1691.2655	89.7738
1691.7476	89.6324
1692.2297	89.4916
1692.7118	89.3576
1693.1940	89.2359
1693.6760	89.1276
1694.1582	89.0275
1694.6403	88.9212
1695.1224	88.7846
1695.6045	88.6003
1696.0867	88.3905
1696.5687	88.2048
1697.0509	88.0612
1697.5330	87.9472
1698.0151	87.8476
1698.4972	87.7528
1698.9794	87.6542
1699.4614	87.5366
1699.9436	87.3801
1700.4257	87.2002
1700.9078	87.0478
1701.3899	86.932
1701.8721	86.8315
1702.3541	86.7303
1702.8363	86.6208
1703.3184	86.503
1703.8005	86.3847
1704.2826	86.2784
1704.7648	86.1931
1705.2468	86.1247
1705.7290	86.0575
1706.2111	85.9777
1706.6932	85.8838
1707.1753	85.7848
1707.6575	85.6902
1708.1395	85.6024
1708.6217	85.5176
1709.1038	85.4296
1709.5859	85.334
1710.0680	85.2307
1710.5502	85.1235
1711.0322	85.0176
1711.5144	84.9165
1711.9965	84.8213
1712.4786	84.7308
1712.9607	84.6405
1713.4429	84.5427
1713.9249	84.4289
1714.4071	84.2973
1714.8892	84.1593
1715.3713	84.0333
1715.8534	83.9322
1716.3356	83.8573
1716.8176	83.7994
1717.2998	83.7406
1717.7819	83.661
1718.2640	83.5545
1718.7461	83.4326
1719.2283	83.3051
1719.7103	83.1702
1720.1925	83.022
1720.6746	82.858
1721.1567	82.6833
1721.6388	82.5095
1722.1210	82.3488
1722.6030	82.2064
1723.0852	82.0761
1723.5673	81.9447
1724.0494	81.8002
1724.5315	81.6382
1725.0137	81.4608
1725.4957	81.2721
1725.9779	81.0753
1726.4600	80.8727
1726.9421	80.6677
1727.4242	80.4648
1727.9064	80.2684
1728.3884	80.0822
1728.8706	79.9093
1729.3527	79.7533
1729.8348	79.616
1730.3169	79.4947
1730.7991	79.3822
1731.2811	79.272
1731.7633	79.1646
1732.2454	79.0721
1732.7275	79.0255
1733.2096	79.0789
1733.6918	79.2744
1734.1738	79.5507
1734.6560	79.7685
1735.1381	79.8813
1735.6202	79.9371
1736.1023	79.9857
1736.5845	80.0481
1737.0665	80.1228
1737.5487	80.1998
1738.0308	80.2735
1738.5129	80.3525
1738.9950	80.4578
1739.4772	80.6018
1739.9592	80.7629
1740.4414	80.8968
1740.9235	80.9773
1741.4056	81.0093
1741.8877	81.0148
1742.3699	81.0172
1742.8519	81.0323
1743.3341	81.0622
1743.8162	81.0957
1744.2983	81.119
1744.7804	81.1274
1745.2626	81.1252
1745.7446	81.1207
1746.2268	81.1218
1746.7089	81.1336
1747.1910	81.1573
1747.6731	81.1887
1748.1553	81.2193
1748.6373	81.2404
1749.1195	81.2483
1749.6016	81.246
1750.0837	81.2405
1750.5658	81.2389
1751.0480	81.2435
1751.5300	81.2491
1752.0122	81.2479
1752.4943	81.2365
1752.9764	81.2185
1753.4585	81.2005
1753.9407	81.19
1754.4227	81.1937
1754.9049	81.217
1755.3870	81.2622
1755.8691	81.3265
1756.3512	81.3992
1756.8334	81.4622
1757.3154	81.4972
1757.7976	81.4958
1758.2797	81.4623
1758.7618	81.4089
1759.2439	81.348
1759.7261	81.2888
1760.2081	81.2345
1760.6903	81.1794
1761.1724	81.1074
1761.6545	81.0001
1762.1366	80.8534
1762.6188	80.6827
1763.1008	80.509
1763.5830	80.3445
1764.0651	80.1923
1764.5472	80.0524
1765.0293	79.926
1765.5115	79.8171
1765.9935	79.732
1766.4757	79.6786
1766.9578	79.6653
1767.4399	79.6974
1767.9220	79.7691
1768.4042	79.86
1768.8862	79.9465
1769.3684	80.0181
1769.8505	80.0812
1770.3326	80.1561
1770.8147	80.2792
1771.2969	80.5032
1771.7789	80.8708
1772.2611	81.3534
1772.7432	81.8461
1773.2253	82.2687
1773.7074	82.6224
1774.1896	82.9538
1774.6716	83.313
1775.1538	83.7331
1775.6359	84.2188
1776.1180	84.7458
1776.6001	85.2783
1777.0823	85.794
1777.5643	86.2942
1778.0465	86.7939
1778.5286	87.3071
1779.0107	87.8402
1779.4928	88.3926
1779.9750	88.9589
1780.4570	89.5268
1780.9392	90.0745
1781.4213	90.5764
1781.9034	91.0166
1782.3855	91.3975
1782.8677	91.7368
1783.3497	92.0579
1783.8319	92.3781
1784.3140	92.6998
1784.7961	93.0079
1785.2782	93.2811
1785.7604	93.5085
1786.2424	93.6939
1786.7246	93.8483
1787.2067	93.9803
1787.6888	94.0922
1788.1709	94.1812
1788.6531	94.2433
1789.1351	94.2775
1789.6173	94.2878
1790.0994	94.2822
1790.5815	94.2694
1791.0636	94.2529
1791.5458	94.2259
1792.0278	94.1724
1792.5100	94.0803
1792.9921	93.9559
1793.4742	93.8185
1793.9563	93.6828
1794.4385	93.5508
1794.9205	93.4154
1795.4027	93.2676
1795.8848	93.104
1796.3669	92.9305
1796.8490	92.7578
1797.3312	92.5924
1797.8132	92.4326
1798.2954	92.2716
1798.7775	92.1042
1799.2596	91.9321
1799.7417	91.7637
1800.2239	91.608
1800.7059	91.4676
1801.1881	91.3385
1801.6702	91.2145
1802.1523	91.0922
1802.6344	90.9729
1803.1166	90.8613
1803.5986	90.7629
1804.0808	90.6817
1804.5629	90.6192
1805.0450	90.5743
1805.5271	90.5441
1806.0093	90.5261
1806.4913	90.5201
1806.9735	90.5293
1807.4556	90.5577
1807.9377	90.6071
1808.4198	90.6761
1808.9020	90.7619
1809.3840	90.8632
1809.8662	90.9809
1810.3483	91.1149
1810.8304	91.2612
1811.3125	91.4118
1811.7947	91.5603
1812.2767	91.7068
1812.7589	91.8575
1813.2410	92.0209
1813.7231	92.2026
1814.2052	92.4039
1814.6874	92.6236
1815.1694	92.8608
1815.6516	93.1161
1816.1337	93.3893
1816.6158	93.6775
1817.0979	93.975
1817.5801	94.2775
1818.0621	94.585
1818.5443	94.9017
1819.0264	95.23
1819.5085	95.5669
1819.9906	95.9034
1820.4728	96.2283
1820.9548	96.5317
1821.4370	96.8068
1821.9191	97.05
1822.4012	97.2613
1822.8833	97.4446
1823.3655	97.6082
1823.8475	97.7636
1824.3297	97.9205
1824.8118	98.0798
1825.2939	98.2293
1825.7760	98.3522
1826.2582	98.4424
1826.7402	98.5087
1827.2224	98.5665
1827.7045	98.6281
1828.1866	98.699
1828.6687	98.7757
1829.1509	98.8468
1829.6329	98.8987
1830.1151	98.9263
1830.5972	98.935
1831.0793	98.9323
1831.5614	98.9223
1832.0436	98.9088
1832.5256	98.8997
1833.0078	98.9079
1833.4899	98.9453
1833.9720	99.0132
1834.4541	99.0978
1834.9363	99.1764
1835.4183	99.2287
1835.9005	99.2469
1836.3826	99.2384
1836.8647	99.2218
1837.3468	99.2166
1837.8290	99.233
1838.3110	99.2688
1838.7932	99.3139
1839.2753	99.3576
1839.7574	99.3932
1840.2395	99.4197
1840.7217	99.4404
1841.2037	99.4602
1841.6859	99.4832
1842.1680	99.5097
1842.6501	99.5356
1843.1322	99.5523
1843.6144	99.5491
1844.0964	99.5232
1844.5786	99.4874
1845.0607	99.4617
1845.5428	99.4571
1846.0249	99.4724
1846.5071	99.5008
1846.9891	99.5339
1847.4713	99.5646
1847.9534	99.5898
1848.4355	99.6118
1848.9176	99.6357
1849.3998	99.6638
1849.8818	99.6916
1850.3640	99.7095
1850.8461	99.707
1851.3282	99.6804
1851.8103	99.6371
1852.2925	99.5941
1852.7745	99.5702
1853.2567	99.5771
1853.7388	99.6139
1854.2209	99.6674
1854.7030	99.7179
1855.1852	99.7481
1855.6672	99.7497
1856.1494	99.7259
1856.6315	99.689
1857.1136	99.6539
1857.5957	99.6311
1858.0779	99.6214
1858.5599	99.6167
1859.0421	99.6052
1859.5242	99.5791
1860.0063	99.5408
1860.4884	99.5022
1860.9706	99.4786
1861.4526	99.4806
1861.9348	99.5074
1862.4169	99.5473
1862.8990	99.585
1863.3811	99.6115
1863.8633	99.6295
1864.3453	99.6522
1864.8275	99.6935
1865.3096	99.7566
1865.7917	99.8278
1866.2738	99.8796
1866.7560	99.8839
1867.2380	99.8286
1867.7202	99.7283
1868.2023	99.6222
1868.6844	99.5572
1869.1665	99.5582
1869.6487	99.6106
1870.1307	99.6751
1870.6129	99.7166
1871.0950	99.7202
1871.5771	99.6878
1872.0592	99.6311
1872.5414	99.5652
1873.0234	99.5059
1873.5056	99.4661
1873.9877	99.4509
1874.4698	99.4547
1874.9519	99.4622
1875.4341	99.4554
1875.9161	99.4223
1876.3983	99.3639
1876.8804	99.2922
1877.3625	99.2222
1877.8446	99.1637
1878.3268	99.1191
1878.8088	99.0872
1879.2910	99.0686
1879.7731	99.0663
1880.2552	99.081
1880.7373	99.1072
1881.2195	99.1331
1881.7015	99.1478
1882.1837	99.148
1882.6658	99.1398
1883.1479	99.1322
1883.6300	99.1285
1884.1122	99.1215
1884.5942	99.0971
1885.0764	99.0447
1885.5585	98.9666
1886.0406	98.8794
1886.5227	98.8062
1887.0049	98.7654
1887.4869	98.7632
1887.9691	98.7942
1888.4512	98.8452
1888.9333	98.9029
1889.4154	98.9605
1889.8976	99.0218
1890.3796	99.0947
1890.8618	99.1819
1891.3439	99.2747
1891.8260	99.3562
1892.3081	99.4094
1892.7903	99.4264
1893.2723	99.4141
1893.7545	99.3919
1894.2366	99.3798
1894.7188	99.3861
1895.2008	99.4019
1895.6830	99.4082
1896.1650	99.3898
1896.6472	99.3464
1897.1293	99.2923
1897.6115	99.2496
1898.0935	99.2378
1898.5757	99.2664
1899.0577	99.3313
1899.5399	99.4158
1900.0220	99.4964
1900.5042	99.5499
1900.9862	99.5618
1901.4684	99.5326
1901.9504	99.4791
1902.4326	99.4285
1902.9147	99.4069
1903.3969	99.4268
1903.8789	99.4813
1904.3611	99.5485
1904.8431	99.6038
1905.3253	99.6326
1905.8074	99.6352
1906.2896	99.622
1906.7716	99.6052
1907.2538	99.5936
1907.7358	99.5938
1908.2180	99.6132
1908.7001	99.659
1909.1823	99.7313
1909.6643	99.8163
1910.1465	99.8891
1910.6285	99.9274
1911.1107	99.9278
1911.5928	99.9098
1912.0750	99.9035
1912.5570	99.9307
1913.0392	99.9906
1913.5212	100.061
1914.0034	100.112
1914.4855	100.127
1914.9677	100.112
1915.4497	100.087
1915.9319	100.073
1916.4139	100.08
1916.8961	100.1
1917.3782	100.12
1917.8604	100.124
1918.3424	100.105
1918.8246	100.067
1919.3066	100.024
1919.7888	99.9863
1920.2709	99.9675
1920.7531	99.9775
1921.2351	100.023
1921.7173	100.101
1922.1993	100.196
1922.6815	100.286
1923.1636	100.344
1923.6458	100.356
1924.1278	100.319
1924.6100	100.24
1925.0920	100.128
1925.5742	100.002
1926.0563	99.8863
1926.5385	99.8091
1927.0205	99.7868
1927.5027	99.8133
1927.9847	99.8594
1928.4669	99.8884
1928.9490	99.8787
1929.4312	99.8399
1929.9132	99.8089
1930.3954	99.828
1930.8774	99.9157
1931.3596	100.05
1931.8417	100.177
1932.3239	100.234
1932.8059	100.186
1933.2881	100.043
1933.7701	99.8545
1934.2523	99.6832
1934.7344	99.5747
1935.2166	99.5401
1935.6986	99.5572
1936.1808	99.588
1936.6628	99.6008
1937.1450	99.5845
1937.6271	99.55
1938.1093	99.5198
1938.5913	99.5146
1939.0735	99.543
1939.5555	99.6008
1940.0377	99.6757
1940.5198	99.7535
1941.0020	99.8193
1941.4840	99.8564
1941.9662	99.8492
1942.4482	99.7941
1942.9304	99.7121
1943.4125	99.6467
1943.8947	99.6437
1944.3767	99.7299
1944.8589	99.8996
1945.3409	100.111
1945.8231	100.295
1946.3052	100.389
1946.7874	100.366
1947.2694	100.25
1947.7516	100.099
1948.2336	99.9655
1948.7158	99.866
1949.1979	99.7799
1949.6801	99.6682
1950.1621	99.5045
1950.6443	99.2938
1951.1263	99.0676
1951.6085	98.8603
1952.0906	98.6865
1952.5728	98.5372
1953.0548	98.3963
1953.5370	98.2631
1954.0190	98.1609
1954.5012	98.1234
1954.9833	98.1701
1955.4655	98.2912
1955.9475	98.4551
1956.4297	98.6323
1956.9117	98.8156
1957.3939	99.0178
1957.8760	99.2505
1958.3582	99.5007
1958.8402	99.7269
1959.3224	99.8794
1959.8044	99.9316
1960.2866	99.8976
1960.7687	99.8214
1961.2509	99.7503
1961.7329	99.7128
1962.2151	99.7145
1962.6971	99.7478
1963.1793	99.8021
1963.6614	99.8663
1964.1436	99.9272
1964.6256	99.9722
1965.1078	99.9978
1965.5898	100.017
1966.0720	100.053
1966.5541	100.123
1967.0363	100.213
1967.5183	100.281
1968.0005	100.282
1968.4825	100.21
1968.9647	100.102
1969.4468	100.022
1969.9290	100.014
1970.4110	100.073
1970.8932	100.147
1971.3752	100.166
1971.8574	100.102
1972.3395	99.9893
1972.8217	99.9094
1973.3037	99.9387
1973.7859	100.096
1974.2679	100.326
1974.7501	100.532
1975.2322	100.629
1975.7144	100.591
1976.1964	100.452
1976.6786	100.279
1977.1606	100.128
1977.6428	100.017
1978.1249	99.9308
1978.6071	99.8487
1979.0891	99.7648
1979.5713	99.6961
1980.0533	99.6703
1980.5355	99.7093
1981.0176	99.8187
1981.4998	99.9827
1981.9819	100.164
1982.4640	100.311
1982.9462	100.367
1983.4282	100.296
1983.9104	100.096
1984.3925	99.8054
1984.8746	99.5029
1985.3567	99.2849
1985.8389	99.2392
1986.3209	99.4155
1986.8031	99.802
1987.2852	100.316
1987.7673	100.82
1988.2494	101.164
1988.7316	101.252
1989.2136	101.082
1989.6958	100.735
1990.1779	100.32
1990.6600	99.9283
1991.1421	99.6151
1991.6243	99.4074
1992.1063	99.3264
1992.5885	99.3926
1993.0706	99.6063
1993.5527	99.9219
1994.0348	100.244
1994.5170	100.457
1994.9990	100.483
1995.4812	100.334
1995.9633	100.115
1996.4454	99.9701
1996.9275	100.001
1997.4097	100.214
1997.8917	100.533
1998.3739	100.85
1998.8560	101.084
1999.3381	101.201
1999.8202	101.201
2000.3024	101.086
2000.7844	100.853
2001.2666	100.521
2001.7487	100.157
2002.2308	99.8726
2002.7129	99.7806
2003.1951	99.9336
2003.6771	100.286
2004.1593	100.704
2004.6414	101.022
2005.1235	101.125
2005.6056	101.001
2006.0878	100.75
2006.5698	100.52
2007.0520	100.439
2007.5341	100.555
2008.0162	100.821
2008.4983	101.139
2008.9805	101.414
2009.4625	101.602
2009.9447	101.715
2010.4268	101.791
2010.9089	101.847
2011.3910	101.854
2011.8732	101.751
2012.3552	101.497
2012.8374	101.115
2013.3195	100.705
2013.8016	100.394
2014.2837	100.276
2014.7659	100.363
2015.2479	100.592
2015.7301	100.866
2016.2122	101.099
2016.6943	101.243
2017.1764	101.289
2017.6586	101.255
2018.1406	101.173
2018.6228	101.093
2019.1049	101.065
2019.5870	101.122
2020.0691	101.245
2020.5513	101.369
2021.0333	101.41
2021.5155	101.331
2021.9976	101.179
2022.4797	101.061
2022.9618	101.076
2023.4440	101.238
2023.9260	101.45
2024.4082	101.557
2024.8903	101.438
2025.3724	101.094
2025.8545	100.663
2026.3367	100.352
2026.8187	100.315
2027.3009	100.568
2027.7830	100.971
2028.2651	101.304
2028.7472	101.387
2029.2294	101.186
2029.7114	100.838
2030.1936	100.568
2030.6757	100.562
2031.1578	100.865
2031.6399	101.353
2032.1221	101.804
2032.6041	102.013
2033.0863	101.899
2033.5684	101.532
2034.0505	101.078
2034.5326	100.71
2035.0148	100.531
2035.4968	100.54
2035.9790	100.658
2036.4611	100.775
2036.9432	100.802
2037.4253	100.71
2037.9075	100.538
2038.3895	100.372
2038.8717	100.296
2039.3538	100.354
2039.8359	100.524
2040.3180	100.732
2040.8002	100.891
2041.2822	100.946
2041.7644	100.894
2042.2465	100.774
2042.7286	100.634
2043.2107	100.507
2043.6929	100.41
2044.1749	100.355
2044.6571	100.364
2045.1392	100.454
2045.6213	100.621
2046.1034	100.818
2046.5856	100.968
2047.0676	100.999
2047.5498	100.89
2048.0320	100.69
2048.5139	100.494
2048.9961	100.389
2049.4783	100.4
2049.9604	100.484
2050.4424	100.563
2050.9246	100.578
2051.4067	100.525
2051.8889	100.438
2052.3708	100.362
2052.8530	100.318
2053.3352	100.292
2053.8174	100.249
2054.2993	100.165
2054.7815	100.055
2055.2637	99.9672
2055.7458	99.9518
2056.2278	100.026
2056.7100	100.158
2057.1921	100.287
2057.6743	100.359
2058.1563	100.358
2058.6384	100.311
2059.1206	100.265
2059.6028	100.243
2060.0847	100.239
2060.5669	100.225
2061.0491	100.177
2061.5313	100.098
2062.0132	100.015
2062.4954	99.9549
2062.9775	99.9288
2063.4597	99.936
2063.9417	99.9774
2064.4238	100.067
2064.9060	100.22
2065.3882	100.432
2065.8701	100.655
2066.3523	100.81
2066.8345	100.822
2067.3167	100.663
2067.7986	100.372
2068.2808	100.039
2068.7629	99.7707
2069.2451	99.6395
2069.7271	99.6636
2070.2092	99.8048
2070.6914	99.9907
2071.1736	100.148
2071.6555	100.233
2072.1377	100.243
2072.6199	100.211
2073.1021	100.18
2073.5840	100.174
2074.0662	100.185
2074.5483	100.183
2075.0305	100.14
2075.5125	100.054
2075.9946	99.9555
2076.4768	99.8896
2076.9590	99.8878
2077.4409	99.9517
2077.9231	100.056
2078.4053	100.163
2078.8875	100.245
2079.3694	100.287
2079.8516	100.287
2080.3337	100.25
2080.8159	100.187
2081.2979	100.112
2081.7800	100.044
2082.2622	100.004
2082.7444	100.006
2083.2263	100.054
2083.7085	100.137
2084.1907	100.237
2084.6729	100.332
2085.1548	100.404
2085.6370	100.441
2086.1191	100.436
2086.6013	100.396
2087.0833	100.33
2087.5654	100.251
2088.0476	100.168
2088.5298	100.087
2089.0117	100.014
2089.4939	99.9549
2089.9761	99.9205
2090.4583	99.9163
2090.9402	99.9401
2091.4224	99.9817
2091.9045	100.029
2092.3867	100.074
2092.8687	100.118
2093.3508	100.163
2093.8330	100.21
2094.3152	100.254
2094.7971	100.287
2095.2793	100.304
2095.7615	100.304
2096.2437	100.287
2096.7256	100.256
2097.2078	100.211
2097.6899	100.154
2098.1721	100.097
2098.6541	100.054
2099.1362	100.041
2099.6184	100.06
2100.1006	100.103
2100.5825	100.147
2101.0647	100.166
2101.5469	100.143
2102.0291	100.077
2102.5110	99.9838
2102.9932	99.8973
2103.4753	99.8501
2103.9575	99.8595
2104.4395	99.9156
2104.9216	99.984
2105.4038	100.025
2105.8860	100.016
2106.3679	99.9696
2106.8501	99.9258
2107.3323	99.9264
2107.8145	99.9877
2108.2964	100.09
2108.7786	100.187
2109.2607	100.239
2109.7429	100.232
2110.2249	100.188
2110.7070	100.147
2111.1892	100.141
2111.6714	100.177
2112.1533	100.233
2112.6355	100.273
2113.1177	100.268
2113.5999	100.21
2114.0818	100.116
2114.5640	100.014
2115.0461	99.9336
2115.5283	99.8865
2116.0103	99.8678
2116.4924	99.8602
2116.9746	99.8465
2117.4568	99.8197
2117.9387	99.7881
2118.4209	99.7708
2118.9031	99.7886
2119.3853	99.8537
2119.8672	99.9626
2120.3494	100.095
2120.8315	100.217
2121.3137	100.292
2121.7957	100.294
2122.2778	100.219
2122.7600	100.094
2123.2422	99.9641
2123.7241	99.8816
2124.2063	99.8773
2124.6885	99.9482
2125.1707	100.059
2125.6526	100.162
2126.1348	100.222
2126.6169	100.232
2127.0991	100.21
2127.5811	100.187
2128.0632	100.184
2128.5454	100.199
2129.0276	100.214
2129.5095	100.208
2129.9917	100.175
2130.4739	100.124
2130.9561	100.078
2131.4380	100.06
2131.9202	100.08
2132.4023	100.133
2132.8845	100.201
2133.3665	100.266
2133.8486	100.319
2134.3308	100.359
2134.8130	100.392
2135.2949	100.421
2135.7771	100.444
2136.2593	100.465
2136.7415	100.492
2137.2234	100.542
2137.7056	100.622
2138.1877	100.718
2138.6699	100.794
2139.1519	100.806
2139.6340	100.736
2140.1162	100.602
2140.5984	100.457
2141.0803	100.359
2141.5625	100.336
2142.0447	100.375
2142.5269	100.436
2143.0088	100.487
2143.4910	100.522
2143.9731	100.564
2144.4553	100.634
2144.9373	100.727
2145.4194	100.814
2145.9016	100.855
2146.3838	100.831
2146.8657	100.751
2147.3479	100.638
2147.8301	100.507
2148.3123	100.363
2148.7942	100.21
2149.2764	100.076
2149.7585	100.011
2150.2407	100.062
2150.7227	100.238
2151.2048	100.498
2151.6870	100.768
2152.1692	100.985
2152.6511	101.119
2153.1333	101.181
2153.6155	101.185
2154.0977	101.131
2154.5796	101.008
2155.0618	100.819
2155.5439	100.61
2156.0261	100.459
2156.5081	100.444
2156.9902	100.589
2157.4724	100.858
2157.9546	101.17
2158.4365	101.448
2158.9187	101.648
2159.4009	101.752
2159.8831	101.746
2160.3650	101.61
2160.8472	101.338
2161.3293	100.972
2161.8115	100.596
2162.2935	100.305
2162.7756	100.155
2163.2578	100.139
2163.7400	100.199
2164.2219	100.26
2164.7041	100.262
2165.1863	100.179
2165.6685	100.003
2166.1504	99.7406
2166.6326	99.4114
2167.1147	99.064
2167.5969	98.7859
2168.0789	98.6879
2168.5610	98.862
2169.0432	99.3294
2169.5254	100.009
2170.0073	100.733
2170.4895	101.314
2170.9717	101.631
2171.4539	101.687
2171.9358	101.596
2172.4180	101.513
2172.9001	101.535
2173.3823	101.648
2173.8643	101.747
2174.3464	101.707
2174.8286	101.463
2175.3108	101.052
2175.7927	100.59
2176.2749	100.209
2176.7571	100.006
2177.2393	100.012
2177.7212	100.204
2178.2034	100.523
2178.6855	100.893
2179.1677	101.235
2179.6497	101.485
2180.1318	101.607
2180.6140	101.609
2181.0962	101.536
2181.5781	101.437
2182.0603	101.341
2182.5425	101.248
2183.0247	101.146
2183.5066	101.036
2183.9888	100.949
2184.4709	100.923
2184.9531	100.972
2185.4351	101.066
2185.9172	101.136
2186.3994	101.114
2186.8816	100.973
2187.3635	100.753
2187.8457	100.54
2188.3279	100.429
2188.8101	100.473
2189.2920	100.658
2189.7742	100.909
2190.2563	101.126
2190.7385	101.233
2191.2205	101.209
2191.7026	101.089
2192.1848	100.938
2192.6670	100.808
2193.1489	100.718
2193.6311	100.655
2194.1133	100.591
2194.5955	100.506
2195.0774	100.394
2195.5596	100.266
2196.0417	100.138
2196.5239	100.032
2197.0059	99.9756
2197.4880	99.9872
2197.9702	100.069
2198.4524	100.196
2198.9343	100.323
2199.4165	100.409
2199.8987	100.447
2200.3809	100.469
2200.8628	100.52
2201.3450	100.622
2201.8271	100.746
2202.3093	100.821
2202.7913	100.775
2203.2734	100.586
2203.7556	100.306
2204.2378	100.029
2204.7197	99.8449
2205.2019	99.7901
2205.6841	99.8389
2206.1663	99.9309
2206.6482	100.017
2207.1304	100.089
2207.6125	100.173
2208.0947	100.297
2208.5767	100.448
2209.0588	100.568
2209.5410	100.582
2210.0232	100.45
2210.5051	100.202
2210.9873	99.9326
2211.4695	99.7514
2211.9517	99.7264
2212.4336	99.846
2212.9158	100.028
2213.3979	100.167
2213.8801	100.186
2214.3621	100.075
2214.8442	99.879
2215.3264	99.6765
2215.8086	99.5357
2216.2905	99.4902
2216.7727	99.5318
2217.2549	99.6221
2217.7371	99.7125
2218.2190	99.7675
2218.7012	99.7793
2219.1833	99.7692
2219.6655	99.7728
2220.1475	99.8169
2220.6296	99.9031
2221.1118	100.007
2221.5940	100.094
2222.0759	100.141
2222.5581	100.145
2223.0403	100.119
2223.5225	100.083
2224.0044	100.053
2224.4866	100.039
2224.9688	100.05
2225.4509	100.09
2225.9329	100.149
2226.4150	100.203
2226.8972	100.216
2227.3794	100.162
2227.8613	100.036
2228.3435	99.8662
2228.8257	99.6908
2229.3079	99.5432
2229.7898	99.4356
2230.2720	99.362
2230.7542	99.3115
2231.2363	99.2822
2231.7183	99.2843
2232.2004	99.3322
2232.6826	99.4315
2233.1648	99.5705
2233.6467	99.7215
2234.1289	99.8509
2234.6111	99.9344
2235.0933	99.9677
2235.5752	99.9686
2236.0574	99.9657
2236.5396	99.98
2237.0217	100.01
2237.5037	100.029
2237.9858	100.002
2238.4680	99.9062
2238.9502	99.7502
2239.4321	99.5692
2239.9143	99.4081
2240.3965	99.3001
2240.8787	99.2544
2241.3606	99.258
2241.8428	99.2864
2242.3250	99.3134
2242.8071	99.317
2243.2891	99.2835
2243.7712	99.2129
2244.2534	99.124
2244.7356	99.0538
2245.2175	99.0443
2245.6997	99.1223
2246.1819	99.2825
2246.6641	99.4843
2247.1460	99.6693
2247.6282	99.7876
2248.1104	99.8203
2248.5925	99.7833
2249.0745	99.7123
2249.5566	99.6392
2250.0388	99.5749
2250.5210	99.5097
2251.0029	99.4286
2251.4851	99.3292
2251.9673	99.23
2252.4495	99.1618
2252.9314	99.1485
2253.4136	99.1902
2253.8958	99.2605
2254.3779	99.3191
2254.8599	99.3332
2255.3420	99.2937
2255.8242	99.2171
2256.3064	99.1346
2256.7883	99.0772
2257.2705	99.064
2257.7527	99.1
2258.2349	99.1782
2258.7168	99.2827
2259.1990	99.3918
2259.6812	99.4802
2260.1633	99.5255
2260.6453	99.5165
2261.1274	99.4591
2261.6096	99.3772
2262.0918	99.3025
2262.5737	99.2616
2263.0559	99.2642
2263.5381	99.3009
2264.0203	99.3506
2264.5022	99.3925
2264.9844	99.4146
2265.4666	99.4156
2265.9487	99.3995
2266.4307	99.3705
2266.9128	99.3314
2267.3950	99.2875
2267.8772	99.25
2268.3591	99.2345
2268.8413	99.2524
2269.3235	99.3021
2269.8057	99.3658
2270.2876	99.4178
2270.7698	99.4393
2271.2520	99.4295
2271.7341	99.406
2272.2161	99.3918
2272.6982	99.3983
2273.1804	99.4161
2273.6626	99.4213
2274.1445	99.3929
2274.6267	99.3295
2275.1089	99.254
2275.5911	99.2006
2276.0730	99.1946
2276.5552	99.2377
2277.0374	99.3074
2277.5195	99.3713
2278.0015	99.4053
2278.4836	99.4041
2278.9658	99.3794
2279.4480	99.3496
2279.9299	99.3278
2280.4121	99.3173
2280.8943	99.3128
2281.3765	99.3064
2281.8584	99.2923
2282.3406	99.2687
2282.8228	99.2367
2283.3049	99.1993
2283.7869	99.159
2284.2690	99.1172
2284.7512	99.0744
2285.2334	99.0301
2285.7153	98.9849
2286.1975	98.9422
2286.6797	98.9099
2287.1619	98.899
2287.6438	98.9195
2288.1260	98.9739
2288.6082	99.0518
2289.0903	99.1299
2289.5723	99.1798
2290.0544	99.1811
2290.5366	99.1336
2291.0188	99.0602
2291.5007	98.9967
2291.9829	98.9724
2292.4651	98.9943
2292.9473	99.042
2293.4292	99.0802
2293.9114	99.0805
2294.3936	99.0383
2294.8757	98.9752
2295.3577	98.9242
2295.8398	98.9092
2296.3220	98.9316
2296.8042	98.971
2297.2861	98.9991
2297.7683	98.9956
2298.2505	98.9575
2298.7327	98.8984
2299.2146	98.8389
2299.6968	98.7969
2300.1790	98.7812
2300.6611	98.7895
2301.1431	98.8112
2301.6252	98.8324
2302.1074	98.8411
2302.5896	98.832
2303.0715	98.8071
2303.5537	98.7745
2304.0359	98.7439
2304.5181	98.7229
2305.0000	98.7151
2305.4822	98.7203
2305.9644	98.7358
2306.4465	98.7572
2306.9285	98.7784
2307.4106	98.7933
2307.8928	98.7976
2308.3750	98.7909
2308.8569	98.7763
2309.3391	98.7584
2309.8213	98.7391
2310.3035	98.7173
2310.7854	98.69
2311.2676	98.6563
2311.7498	98.6184
2312.2319	98.5805
2312.7139	98.5457
2313.1960	98.5158
2313.6782	98.4932
2314.1604	98.4835
2314.6423	98.4931
2315.1245	98.523
2315.6067	98.5627
2316.0889	98.5924
2316.5708	98.592
2317.0530	98.5549
2317.5352	98.4946
2318.0173	98.4391
2318.4993	98.4151
2318.9814	98.4323
2319.4636	98.4795
2319.9458	98.533
2320.4277	98.571
2320.9099	98.5826
2321.3921	98.567
2321.8743	98.5261
2322.3562	98.4622
2322.8384	98.381
2323.3206	98.2979
2323.8027	98.2366
2324.2847	98.2194
2324.7668	98.2541
2325.2490	98.3312
2325.7312	98.4294
2326.2131	98.5268
2326.6953	98.6092
2327.1775	98.6724
2327.6597	98.7198
2328.1416	98.7567
2328.6238	98.7875
2329.1060	98.8138
2329.5881	98.8344
2330.0701	98.8438
2330.5522	98.8317
2331.0344	98.7864
2331.5166	98.7036
2331.9985	98.5951
2332.4807	98.4895
2332.9629	98.4212
2333.4451	98.4128
2333.9270	98.4634
2334.4092	98.5514
2334.8914	98.6486
2335.3735	98.7347
2335.8555	98.8034
2336.3376	98.8576
2336.8198	98.8987
2337.3020	98.9192
2337.7839	98.907
2338.2661	98.8558
2338.7483	98.7736
2339.2305	98.6814
2339.7124	98.6034
2340.1946	98.5545
2340.6768	98.5325
2341.1589	98.5221
2341.6409	98.505
2342.1230	98.4701
2342.6052	98.4181
2343.0874	98.3608
2343.5693	98.3175
2344.0515	98.3067
2344.5337	98.3359
2345.0159	98.3939
2345.4978	98.4523
2345.9800	98.48
2346.4622	98.4638
2346.9443	98.4162
2347.4263	98.3644
2347.9084	98.3322
2348.3906	98.3304
2348.8728	98.3593
2349.3547	98.4122
2349.8369	98.4789
2350.3191	98.5471
2350.8013	98.6034
2351.2832	98.6369
2351.7654	98.6437
2352.2476	98.6301
2352.7297	98.6108
2353.2117	98.6028
2353.6938	98.6167
2354.1760	98.6473
2354.6582	98.6725
2355.1401	98.6651
2355.6223	98.6129
2356.1045	98.5315
2356.5867	98.4569
2357.0686	98.4187
2357.5508	98.4144
2358.0330	98.4067
2358.5151	98.3519
2358.9971	98.2386
2359.4792	98.1072
2359.9614	98.0292
2360.4436	98.0595
2360.9255	98.1958
2361.4077	98.3754
2361.8899	98.5124
2362.3721	98.5501
2362.8540	98.4945
2363.3362	98.4065
2363.8184	98.359
2364.3005	98.3877
2364.7825	98.4688
2365.2646	98.5381
2365.7468	98.5348
2366.2290	98.4404
2366.7109	98.2868
2367.1931	98.1336
2367.6753	98.0327
2368.1575	98.0031
2368.6394	98.0295
2369.1216	98.0799
2369.6038	98.1272
2370.0859	98.1609
2370.5679	98.1846
2371.0500	98.206
2371.5322	98.2284
2372.0144	98.2494
2372.4963	98.2649
2372.9785	98.2737
2373.4607	98.2792
2373.9429	98.2879
2374.4248	98.3066
2374.9070	98.339
2375.3892	98.384
2375.8713	98.4341
2376.3533	98.4768
2376.8354	98.4996
2377.3176	98.4953
2377.7998	98.4675
2378.2817	98.4289
2378.7639	98.3961
2379.2461	98.3812
2379.7283	98.3867
2380.2102	98.4059
2380.6924	98.4285
2381.1746	98.4457
2381.6567	98.4529
2382.1387	98.4482
2382.6208	98.4313
2383.1030	98.4026
2383.5852	98.3664
2384.0671	98.3322
2384.5493	98.3126
2385.0315	98.3183
2385.5137	98.3512
2385.9956	98.4023
2386.4778	98.456
2386.9600	98.4981
2387.4421	98.5228
2387.9241	98.5335
2388.4063	98.5381
2388.8884	98.5417
2389.3706	98.5428
2389.8525	98.5354
2390.3347	98.5143
2390.8169	98.4804
2391.2991	98.4418
2391.7810	98.4101
2392.2632	98.3946
2392.7454	98.3982
2393.2275	98.4156
2393.7095	98.4362
2394.1917	98.4489
2394.6738	98.4475
2395.1560	98.4342
2395.6379	98.4189
2396.1201	98.4144
2396.6023	98.4285
2397.0845	98.4593
2397.5664	98.4958
2398.0486	98.5236
2398.5308	98.5335
2399.0129	98.5253
2399.4949	98.5061
2399.9771	98.4844
2400.4592	98.4645
2400.9414	98.4458
2401.4233	98.4264
2401.9055	98.4065
2402.3877	98.3896
2402.8699	98.3803
2403.3518	98.3813
2403.8340	98.3927
2404.3162	98.4123
2404.7983	98.437
2405.2803	98.4615
2405.7625	98.4774
2406.2446	98.4737
2406.7268	98.4426
2407.2087	98.3854
2407.6909	98.3159
2408.1731	98.2556
2408.6553	98.2239
2409.1372	98.2278
2409.6194	98.2578
2410.1016	98.2932
2410.5837	98.3126
2411.0657	98.3045
2411.5479	98.2715
2412.0300	98.2275
2412.5122	98.1889
2412.9941	98.1671
2413.4763	98.164
2413.9585	98.173
2414.4407	98.1845
2414.9226	98.1923
2415.4048	98.1966
2415.8870	98.2029
2416.3691	98.2165
2416.8511	98.2374
2417.3333	98.2587
2417.8154	98.2705
2418.2976	98.2662
2418.7795	98.2467
2419.2617	98.219
2419.7439	98.1912
2420.2261	98.1672
2420.7080	98.1459
2421.1902	98.1246
2421.6724	98.1034
2422.1545	98.087
2422.6365	98.081
2423.1187	98.0861
2423.6008	98.0964
2424.0830	98.1013
2424.5649	98.0924
2425.0471	98.0691
2425.5293	98.0389
2426.0115	98.0131
2426.4934	97.9997
2426.9756	97.9996
2427.4578	98.0059
2427.9399	98.0092
2428.4219	98.0024
2428.9041	97.985
2429.3862	97.9627
2429.8684	97.9447
2430.3503	97.9396
2430.8325	97.9514
2431.3147	97.9775
2431.7969	98.0092
2432.2788	98.0342
2432.7610	98.0406
2433.2432	98.0211
2433.7253	97.977
2434.2073	97.9185
2434.6895	97.8618
2435.1716	97.8229
2435.6538	97.8112
2436.1357	97.8251
2436.6179	97.8536
2437.1001	97.8818
2437.5823	97.8978
2438.0642	97.8973
2438.5464	97.8841
2439.0286	97.8664
2439.5107	97.8529
2439.9927	97.849
2440.4749	97.8558
2440.9570	97.8697
2441.4392	97.884
2441.9211	97.8912
2442.4033	97.8864
2442.8855	97.8702
2443.3677	97.8492
2443.8496	97.833
2444.3318	97.8291
2444.8140	97.8381
2445.2961	97.8535
2445.7781	97.8646
2446.2603	97.8622
2446.7424	97.8426
2447.2246	97.8083
2447.7065	97.7665
2448.1887	97.7261
2448.6709	97.6963
2449.1531	97.6855
2449.6350	97.6995
2450.1172	97.7386
2450.5994	97.7947
2451.0815	97.8506
2451.5635	97.8844
2452.0457	97.8793
2452.5278	97.8329
2453.0100	97.7611
2453.4919	97.6932
2453.9741	97.6583
2454.4563	97.6704
2454.9385	97.7221
2455.4204	97.7889
2455.9026	97.8427
2456.3848	97.8662
2456.8669	97.8588
2457.3489	97.833
2457.8311	97.8046
2458.3132	97.7838
2458.7954	97.7731
2459.2773	97.77
2459.7595	97.7701
2460.2417	97.77
2460.7239	97.7665
2461.2058	97.7585
2461.6880	97.748
2462.1702	97.7411
2462.6523	97.7458
2463.1343	97.766
2463.6165	97.7971
2464.0986	97.8263
2464.5808	97.8399
2465.0627	97.8311
2465.5449	97.8036
2466.0271	97.7686
2466.5093	97.7359
2466.9912	97.7092
2467.4734	97.6863
2467.9556	97.6656
2468.4377	97.6492
2468.9197	97.642
2469.4019	97.6454
2469.8840	97.6527
2470.3662	97.6516
2470.8481	97.6328
2471.3303	97.598
2471.8125	97.5616
2472.2947	97.5414
2472.7766	97.5475
2473.2588	97.5747
2473.7410	97.6055
2474.2231	97.6217
2474.7051	97.6147
2475.1873	97.5893
2475.6694	97.5586
2476.1516	97.5349
2476.6335	97.5232
2477.1157	97.5214
2477.5979	97.5233
2478.0801	97.5229
2478.5620	97.5149
2479.0442	97.4952
2479.5264	97.4612
2480.0085	97.415
2480.4905	97.3641
2480.9727	97.3204
2481.4548	97.2938
2481.9370	97.2882
2482.4189	97.2995
2482.9011	97.3201
2483.3833	97.3446
2483.8655	97.371
2484.3474	97.3985
2484.8296	97.4225
2485.3118	97.4336
2485.7939	97.4211
2486.2759	97.38
2486.7581	97.3136
2487.2402	97.2322
2487.7224	97.1465
2488.2043	97.0647
2488.6865	96.9921
2489.1687	96.9351
2489.6509	96.9024
2490.1328	96.902
2490.6150	96.9346
2491.0972	96.9895
2491.5793	97.0479
2492.0613	97.0907
2492.5435	97.1072
2493.0256	97.0987
2493.5078	97.0743
2493.9897	97.044
2494.4719	97.0134
2494.9541	96.9833
2495.4363	96.9524
2495.9182	96.9203
2496.4004	96.8877
2496.8826	96.8546
2497.3647	96.819
2497.8467	96.7785
2498.3289	96.7331
2498.8110	96.6876
2499.2932	96.6513
2499.7751	96.6339
2500.2573	96.6411
2500.7395	96.6711
2501.2217	96.7155
2501.7036	96.7631
2502.1858	96.8033
2502.6680	96.8291
2503.1501	96.8371
2503.6321	96.827
2504.1143	96.8007
2504.5964	96.7627
2505.0786	96.721
2505.5605	96.6857
2506.0427	96.6669
2506.5249	96.6702
2507.0071	96.693
2507.4890	96.7245
2507.9712	96.7489
2508.4534	96.7512
2508.9355	96.7244
2509.4175	96.6735
2509.8997	96.6142
2510.3818	96.5669
2510.8640	96.5477
2511.3459	96.5605
2511.8281	96.5953
2512.3103	96.6326
2512.7925	96.6531
2513.2744	96.6467
2513.7566	96.6157
2514.2388	96.5711
2514.7209	96.5249
2515.2029	96.4844
2515.6851	96.4507
2516.1672	96.4232
2516.6494	96.4028
2517.1313	96.3934
2517.6135	96.3982
2518.0957	96.4153
2518.5779	96.4367
2519.0598	96.4511
2519.5420	96.4501
2520.0242	96.4329
2520.5063	96.4068
2520.9883	96.3827
2521.4705	96.3692
2521.9526	96.3694
2522.4348	96.3805
2522.9167	96.3978
2523.3989	96.4179
2523.8811	96.4406
2524.3633	96.4661
2524.8452	96.4927
2525.3274	96.5145
2525.8096	96.5235
2526.2917	96.5144
2526.7737	96.4886
2527.2559	96.4542
2527.7380	96.4224
2528.2202	96.4014
2528.7021	96.3931
2529.1843	96.394
2529.6665	96.3989
2530.1487	96.4046
2530.6306	96.41
2531.1128	96.4144
2531.5950	96.4157
2532.0771	96.4113
2532.5591	96.4018
2533.0413	96.3917
2533.5234	96.3882
2534.0056	96.3954
2534.4875	96.4105
2534.9697	96.4249
2535.4519	96.4298
2535.9341	96.4231
2536.4160	96.4117
2536.8982	96.4063
2537.3804	96.4141
2537.8625	96.4335
2538.3445	96.4546
2538.8267	96.4665
2539.3088	96.4638
2539.7910	96.4484
2540.2729	96.4259
2540.7551	96.4001
2541.2373	96.3709
2541.7195	96.3374
2542.2014	96.3023
2542.6836	96.2744
2543.1658	96.2642
2543.6479	96.2766
2544.1299	96.3054
2544.6121	96.3362
2545.0942	96.3537
2545.5764	96.3514
2546.0583	96.3339
2546.5405	96.3128
2547.0227	96.2979
2547.5049	96.2917
2547.9868	96.2896
2548.4690	96.2849
2548.9512	96.2729
2549.4333	96.2524
2549.9153	96.2236
2550.3975	96.187
2550.8796	96.1441
2551.3618	96.1002
2551.8438	96.0642
2552.3259	96.0451
2552.8081	96.0472
2553.2903	96.0676
2553.7722	96.0991
2554.2544	96.1341
2554.7366	96.1686
2555.2188	96.1993
2555.7007	96.2205
2556.1829	96.2225
2556.6650	96.1973
2557.1472	96.1451
2557.6292	96.0794
2558.1113	96.0211
2558.5935	95.9887
2559.0757	95.9871
2559.5576	96.0057
2560.0398	96.0249
2560.5220	96.0281
2561.0042	96.0095
2561.4861	95.9752
2561.9683	95.9389
2562.4504	95.9144
2562.9326	95.9116
2563.4146	95.9337
2563.8967	95.9762
2564.3789	96.0265
2564.8611	96.0674
2565.3430	96.0819
2565.8252	96.0614
2566.3074	96.0093
2566.7896	95.9391
2567.2715	95.8673
2567.7537	95.8054
2568.2358	95.7567
2568.7180	95.7204
2569.2000	95.6963
2569.6821	95.6877
2570.1643	95.6985
2570.6465	95.7274
2571.1284	95.7641
2571.6106	95.7931
2572.0928	95.8017
2572.5750	95.788
2573.0569	95.7614
2573.5391	95.7369
2574.0212	95.7252
2574.5034	95.7263
2574.9854	95.7295
2575.4675	95.7204
2575.9497	95.6894
2576.4319	95.6365
2576.9138	95.5709
2577.3960	95.5057
2577.8782	95.4521
2578.3604	95.4151
2578.8423	95.3938
2579.3245	95.3834
2579.8066	95.3777
2580.2888	95.3714
2580.7708	95.3607
2581.2529	95.3439
2581.7351	95.3217
2582.2173	95.2974
2582.6992	95.276
2583.1814	95.2624
2583.6636	95.2587
2584.1458	95.2634
2584.6277	95.2714
2585.1099	95.2775
2585.5920	95.2792
2586.0742	95.2781
2586.5562	95.2781
2587.0383	95.2811
2587.5205	95.2834
2588.0027	95.2765
2588.4846	95.2511
2588.9668	95.2037
2589.4490	95.1407
2589.9312	95.0761
2590.4131	95.025
2590.8953	94.9957
2591.3774	94.986
2591.8596	94.9857
2592.3416	94.9833
2592.8237	94.9732
2593.3059	94.9579
2593.7881	94.9444
2594.2700	94.939
2594.7522	94.9422
2595.2344	94.9492
2595.7166	94.9524
2596.1985	94.9457
2596.6807	94.9267
2597.1628	94.897
2597.6450	94.8605
2598.1270	94.8228
2598.6091	94.7895
2599.0913	94.7661
2599.5735	94.7558
2600.0554	94.7583
2600.5376	94.7689
2601.0198	94.7803
2601.5020	94.785
2601.9839	94.7786
2602.4661	94.7612
2602.9482	94.736
2603.4304	94.7074
2603.9124	94.6783
2604.3945	94.6494
2604.8767	94.6201
2605.3589	94.5904
2605.8408	94.5617
2606.3230	94.5368
2606.8052	94.5178
2607.2874	94.5041
2607.7693	94.4923
2608.2515	94.4785
2608.7336	94.4599
2609.2158	94.4371
2609.6978	94.4122
2610.1799	94.3869
2610.6621	94.3604
2611.1443	94.3305
2611.6262	94.2969
2612.1084	94.264
2612.5906	94.2405
2613.0728	94.2355
2613.5547	94.2527
2614.0369	94.2865
2614.5190	94.3237
2615.0012	94.3492
2615.4832	94.3529
2615.9653	94.3337
2616.4475	94.2997
2616.9297	94.2629
2617.4116	94.2346
2617.8938	94.2208
2618.3760	94.2213
2618.8582	94.2314
2619.3401	94.2431
2619.8223	94.2483
2620.3044	94.2401
2620.7866	94.2146
2621.2686	94.1722
2621.7507	94.1181
2622.2329	94.062
2622.7151	94.0155
2623.1970	93.9881
2623.6792	93.9846
2624.1614	94.0025
2624.6436	94.0337
2625.1255	94.0671
2625.6077	94.0927
2626.0898	94.1045
2626.5720	94.1012
2627.0540	94.0859
2627.5361	94.0638
2628.0183	94.0407
2628.5005	94.0209
2628.9824	94.0064
2629.4646	93.997
2629.9468	93.9903
2630.4290	93.9832
2630.9109	93.9726
2631.3931	93.9558
2631.8752	93.9309
2632.3574	93.8975
2632.8394	93.8568
2633.3215	93.8129
2633.8037	93.771
2634.2859	93.7364
2634.7678	93.7122
2635.2500	93.6984
2635.7322	93.6923
2636.2144	93.6903
2636.6963	93.6892
2637.1785	93.6869
2637.6606	93.6826
2638.1428	93.6766
2638.6248	93.6695
2639.1069	93.6619
2639.5891	93.6534
2640.0713	93.6418
2640.5532	93.6247
2641.0354	93.6011
2641.5176	93.5736
2641.9998	93.5482
2642.4817	93.5307
2642.9639	93.523
2643.4460	93.5217
2643.9282	93.5199
2644.4102	93.5124
2644.8923	93.4989
2645.3745	93.4834
2645.8567	93.4693
2646.3386	93.4556
2646.8208	93.4369
2647.3030	93.4077
2647.7852	93.3678
2648.2671	93.3237
2648.7493	93.2856
2649.2314	93.2611
2649.7136	93.2506
2650.1956	93.2479
2650.6777	93.2438
2651.1599	93.2315
2651.6421	93.2088
2652.1240	93.1778
2652.6062	93.1422
2653.0884	93.1051
2653.5706	93.0693
2654.0525	93.0369
2654.5347	93.0098
2655.0168	92.988
2655.4990	92.9696
2655.9810	92.9503
2656.4631	92.9255
2656.9453	92.8933
2657.4275	92.856
2657.9094	92.8193
2658.3916	92.7896
2658.8738	92.7702
2659.3560	92.7599
2659.8379	92.7535
2660.3201	92.7456
2660.8022	92.7333
2661.2844	92.7175
2661.7664	92.7008
2662.2485	92.6849
2662.7307	92.6687
2663.2129	92.6502
2663.6948	92.6281
2664.1770	92.6044
2664.6592	92.5825
2665.1414	92.5648
2665.6233	92.5502
2666.1055	92.5337
2666.5876	92.511
2667.0698	92.4813
2667.5518	92.4496
2668.0339	92.4237
2668.5161	92.4091
2668.9983	92.4059
2669.4802	92.4087
2669.9624	92.4098
2670.4446	92.4044
2670.9268	92.3921
2671.4087	92.3761
2671.8909	92.3596
2672.3730	92.3438
2672.8552	92.3276
2673.3372	92.3098
2673.8193	92.291
2674.3015	92.2741
2674.7837	92.2618
2675.2656	92.2551
2675.7478	92.252
2676.2300	92.2489
2676.7122	92.2425
2677.1941	92.2319
2677.6763	92.2184
2678.1584	92.2044
2678.6406	92.1918
2679.1226	92.1805
2679.6047	92.1691
2680.0869	92.1556
2680.5691	92.1387
2681.0510	92.118
2681.5332	92.0951
2682.0154	92.0727
2682.4976	92.0536
2682.9795	92.04
2683.4617	92.0322
2683.9438	92.029
2684.4260	92.0282
2684.9080	92.0278
2685.3901	92.0256
2685.8723	92.0201
2686.3545	92.0095
2686.8364	91.9926
2687.3186	91.9697
2687.8008	91.9436
2688.2830	91.9189
2688.7649	91.9004
2689.2471	91.8901
2689.7292	91.8859
2690.2114	91.8828
2690.6934	91.8748
2691.1755	91.8589
2691.6577	91.8358
2692.1399	91.8094
2692.6218	91.7841
2693.1040	91.7627
2693.5862	91.7452
2694.0684	91.7297
2694.5503	91.7136
2695.0325	91.6949
2695.5146	91.6731
2695.9968	91.6486
2696.4788	91.622
2696.9609	91.5944
2697.4431	91.5662
2697.9253	91.5374
2698.4072	91.5082
2698.8894	91.4791
2699.3716	91.4513
2699.8538	91.426
2700.3357	91.4041
2700.8179	91.3852
2701.3000	91.3674
2701.7822	91.3488
2702.2642	91.3286
2702.7463	91.308
2703.2285	91.2901
2703.7107	91.2769
2704.1926	91.2674
2704.6748	91.2569
2705.1570	91.2387
2705.6392	91.2082
2706.1211	91.1653
2706.6033	91.1151
2707.0854	91.0642
2707.5676	91.0174
2708.0496	90.9755
2708.5317	90.9362
2709.0139	90.8976
2709.4961	90.8604
2709.9780	90.8279
2710.4602	90.803
2710.9424	90.7854
2711.4246	90.7703
2711.9065	90.7512
2712.3887	90.7228
2712.8708	90.6845
2713.3530	90.6402
2713.8350	90.5955
2714.3171	90.5551
2714.7993	90.5202
2715.2815	90.4887
2715.7634	90.4568
2716.2456	90.4211
2716.7278	90.3802
2717.2100	90.3362
2717.6919	90.2929
2718.1741	90.255
2718.6563	90.225
2719.1384	90.2023
2719.6204	90.1832
2720.1025	90.1634
2720.5847	90.1409
2721.0669	90.1172
2721.5488	90.0969
2722.0310	90.0834
2722.5132	90.0761
2722.9954	90.069
2723.4773	90.0536
2723.9595	90.0235
2724.4417	89.9784
2724.9238	89.9255
2725.4058	89.8754
2725.8879	89.8372
2726.3701	89.8139
2726.8523	89.8022
2727.3342	89.795
2727.8164	89.7866
2728.2986	89.7748
2728.7808	89.7611
2729.2627	89.7476
2729.7449	89.7348
2730.2271	89.721
2730.7092	89.7042
2731.1912	89.6845
2731.6733	89.6647
2732.1555	89.6481
2732.6377	89.6366
2733.1196	89.6285
2733.6018	89.6198
2734.0840	89.6069
2734.5662	89.5889
2735.0481	89.5684
2735.5303	89.5494
2736.0125	89.5351
2736.4946	89.5259
2736.9766	89.5191
2737.4587	89.5105
2737.9409	89.4956
2738.4231	89.4723
2738.9050	89.4416
2739.3872	89.4072
2739.8694	89.3744
2740.3516	89.3476
2740.8335	89.3285
2741.3157	89.3155
2741.7979	89.3053
2742.2800	89.2953
2742.7620	89.285
2743.2441	89.2757
2743.7263	89.2684
2744.2085	89.2609
2744.6904	89.2484
2745.1726	89.2253
2745.6548	89.1885
2746.1370	89.1403
2746.6189	89.0877
2747.1011	89.0396
2747.5833	89.0024
2748.0654	88.9779
2748.5474	88.9626
2749.0295	88.9505
2749.5117	88.9353
2749.9939	88.9136
2750.4758	88.8849
2750.9580	88.851
2751.4402	88.8146
2751.9224	88.7774
2752.4043	88.7392
2752.8865	88.6983
2753.3687	88.6526
2753.8508	88.6016
2754.3328	88.5469
2754.8149	88.4922
2755.2971	88.441
2755.7793	88.3942
2756.2612	88.3501
2756.7434	88.305
2757.2256	88.2562
2757.7078	88.204
2758.1897	88.1513
2758.6719	88.102
2759.1541	88.0582
2759.6362	88.019
2760.1182	87.9808
2760.6003	87.9398
2761.0825	87.8933
2761.5647	87.8411
2762.0466	87.7855
2762.5288	87.7304
2763.0110	87.6803
2763.4932	87.6381
2763.9751	87.6037
2764.4573	87.5731
2764.9395	87.5398
2765.4216	87.4977
2765.9036	87.4439
2766.3857	87.381
2766.8679	87.3148
2767.3501	87.2513
2767.8320	87.1937
2768.3142	87.1412
2768.7964	87.0908
2769.2786	87.04
2769.7605	86.9878
2770.2427	86.9346
2770.7249	86.8813
2771.2070	86.8278
2771.6890	86.7738
2772.1711	86.7192
2772.6533	86.6638
2773.1355	86.607
2773.6174	86.5475
2774.0996	86.484
2774.5818	86.4168
2775.0640	86.3487
2775.5459	86.2838
2776.0281	86.2254
2776.5103	86.1744
2776.9924	86.1284
2777.4744	86.0835
2777.9565	86.0368
2778.4387	85.9871
2778.9209	85.9341
2779.4028	85.878
2779.8850	85.8179
2780.3672	85.7527
2780.8494	85.6824
2781.3313	85.6092
2781.8135	85.5366
2782.2957	85.468
2782.7778	85.4056
2783.2598	85.3495
2783.7419	85.2982
2784.2241	85.2494
2784.7063	85.2008
2785.1882	85.1505
2785.6704	85.0975
2786.1526	85.0409
2786.6348	84.9808
2787.1167	84.9169
2787.5989	84.8487
2788.0811	84.7753
2788.5632	84.6966
2789.0452	84.6142
2789.5273	84.5324
2790.0095	84.457
2790.4917	84.3929
2790.9736	84.3406
2791.4558	84.2953
2791.9380	84.2478
2792.4202	84.1891
2792.9021	84.1148
2793.3843	84.0275
2793.8665	83.9356
2794.3486	83.8486
2794.8306	83.7727
2795.3127	83.708
2795.7949	83.6506
2796.2771	83.596
2796.7590	83.5417
2797.2412	83.4877
2797.7234	83.4346
2798.2056	83.3816
2798.6875	83.326
2799.1697	83.2656
2799.6519	83.201
2800.1340	83.1359
2800.6160	83.0754
2801.0981	83.0231
2801.5803	82.9786
2802.0625	82.9381
2802.5444	82.8964
2803.0266	82.8493
2803.5088	82.7952
2803.9910	82.7351
2804.4729	82.6722
2804.9551	82.6107
2805.4373	82.5546
2805.9194	82.5069
2806.4014	82.4691
2806.8835	82.4402
2807.3657	82.4177
2807.8479	82.3978
2808.3298	82.3773
2808.8120	82.3541
2809.2942	82.3279
2809.7764	82.3
2810.2583	82.2724
2810.7405	82.2473
2811.2227	82.2257
2811.7048	82.2077
2812.1868	82.1925
2812.6689	82.1791
2813.1511	82.1669
2813.6333	82.1552
2814.1152	82.1426
2814.5974	82.1272
2815.0796	82.1078
2815.5618	82.0855
2816.0437	82.0646
2816.5259	82.051
2817.0081	82.049
2817.4902	82.0576
2817.9722	82.0709
2818.4543	82.0801
2818.9365	82.0795
2819.4187	82.0699
2819.9006	82.0588
2820.3828	82.0568
2820.8650	82.0726
2821.3472	82.1086
2821.8291	82.1603
2822.3113	82.2184
2822.7935	82.2734
2823.2756	82.3196
2823.7576	82.3568
2824.2397	82.3905
2824.7219	82.4281
2825.2041	82.4745
2825.6860	82.5291
2826.1682	82.5857
2826.6504	82.6363
2827.1326	82.6762
2827.6145	82.7066
2828.0967	82.7341
2828.5789	82.7653
2829.0610	82.8025
2829.5430	82.8425
2830.0251	82.88
2830.5073	82.9126
2830.9895	82.9432
2831.4714	82.978
2831.9536	83.0217
2832.4358	83.0742
2832.9180	83.1305
2833.3999	83.1849
2833.8821	83.2346
2834.3643	83.2808
2834.8464	83.3257
2835.3284	83.3689
2835.8105	83.4071
2836.2927	83.436
2836.7749	83.454
2837.2568	83.4639
2837.7390	83.4706
2838.2212	83.477
2838.7034	83.4819
2839.1853	83.481
2839.6675	83.4703
2840.1497	83.4499
2840.6318	83.4243
2841.1138	83.3995
2841.5959	83.3795
2842.0781	83.3636
2842.5603	83.3483
2843.0422	83.3291
2843.5244	83.3038
2844.0066	83.273
2844.4888	83.2384
2844.9707	83.2009
2845.4529	83.1595
2845.9351	83.1124
2846.4172	83.0584
2846.8992	82.9984
2847.3813	82.9353
2847.8635	82.8732
2848.3457	82.8153
2848.8276	82.7634
2849.3098	82.7172
2849.7920	82.6737
2850.2742	82.6282
2850.7561	82.5747
2851.2383	82.5079
2851.7205	82.4262
2852.2026	82.333
2852.6846	82.2356
2853.1667	82.1426
2853.6489	82.0589
2854.1311	81.9842
2854.6130	81.9137
2855.0952	81.8417
2855.5774	81.7653
2856.0596	81.6849
2856.5415	81.603
2857.0237	81.5203
2857.5059	81.4348
2857.9880	81.343
2858.4700	81.2425
2858.9521	81.1346
2859.4343	81.0237
2859.9165	80.9148
2860.3984	80.8105
2860.8806	80.709
2861.3628	80.6052
2861.8450	80.4933
2862.3269	80.3705
2862.8091	80.2383
2863.2913	80.1023
2863.7734	79.9694
2864.2554	79.8444
2864.7375	79.7284
2865.2197	79.6186
2865.7019	79.5112
2866.1838	79.404
2866.6660	79.2983
2867.1482	79.1982
2867.6304	79.1079
2868.1123	79.0298
2868.5945	78.9631
2869.0767	78.9048
2869.5588	78.8519
2870.0408	78.8037
2870.5229	78.7625
2871.0051	78.7328
2871.4873	78.7186
2871.9692	78.7217
2872.4514	78.7405
2872.9336	78.7716
2873.4158	78.8131
2873.8977	78.8675
2874.3799	78.9424
2874.8621	79.0474
2875.3442	79.1894
2875.8262	79.368
2876.3083	79.5751
2876.7905	79.7978
2877.2727	80.0238
2877.7546	80.2456
2878.2368	80.4614
2878.7190	80.6735
2879.2012	80.8844
2879.6831	81.095
2880.1653	81.3036
2880.6475	81.5068
2881.1296	81.7004
2881.6116	81.8795
2882.0938	82.0393
2882.5759	82.1759
2883.0581	82.2867
2883.5400	82.3719
2884.0222	82.4342
2884.5044	82.4793
2884.9866	82.5147
2885.4685	82.5492
2885.9507	82.591
2886.4329	82.6457
2886.9150	82.7148
2887.3970	82.795
2887.8792	82.8794
2888.3613	82.9612
2888.8435	83.0361
2889.3254	83.1042
2889.8076	83.1683
2890.2898	83.2312
2890.7720	83.2932
2891.2539	83.3511
2891.7361	83.4003
2892.2183	83.4377
2892.7004	83.4641
2893.1824	83.4845
2893.6646	83.5064
2894.1467	83.5366
2894.6289	83.5784
2895.1108	83.6314
2895.5930	83.6914
2896.0752	83.7532
2896.5574	83.8124
2897.0393	83.867
2897.5215	83.9176
2898.0037	83.9663
2898.4858	84.0157
2898.9678	84.0678
2899.4500	84.1233
2899.9321	84.1815
2900.4143	84.2403
2900.8962	84.2967
2901.3784	84.3481
2901.8606	84.3935
2902.3428	84.4347
2902.8247	84.4758
2903.3069	84.5217
2903.7891	84.5746
2904.2712	84.6322
2904.7532	84.688
2905.2354	84.7341
2905.7175	84.7655
2906.1997	84.7827
2906.6816	84.7903
2907.1638	84.7945
2907.6460	84.7987
2908.1282	84.802
2908.6101	84.8008
2909.0923	84.7923
2909.5745	84.7782
2910.0566	84.7655
2910.5386	84.7648
2911.0208	84.7856
2911.5029	84.8336
2911.9851	84.9085
2912.4670	85.006
2912.9492	85.1203
2913.4314	85.2472
2913.9136	85.3848
2914.3955	85.5327
2914.8777	85.6891
2915.3599	85.8497
2915.8420	86.0075
2916.3240	86.1551
2916.8062	86.2873
2917.2883	86.4023
2917.7705	86.5011
2918.2524	86.5856
2918.7346	86.6558
2919.2168	86.709
2919.6990	86.74
2920.1809	86.7432
2920.6631	86.7154
2921.1453	86.6576
2921.6274	86.5749
2922.1094	86.4751
2922.5916	86.3652
2923.0737	86.2497
2923.5559	86.1299
2924.0378	86.0054
2924.5200	85.8771
2925.0022	85.7488
2925.4844	85.6273
2925.9663	85.52
2926.4485	85.4326
2926.9307	85.3675
2927.4128	85.324
2927.8948	85.3001
2928.3770	85.295
2928.8591	85.31
2929.3413	85.3474
2929.8232	85.409
2930.3054	85.494
2930.7876	85.599
2931.2698	85.7184
2931.7517	85.8473
2932.2339	85.9826
2932.7161	86.124
2933.1982	86.2724
2933.6802	86.428
2934.1624	86.5882
2934.6445	86.7468
2935.1267	86.8952
2935.6086	87.0247
2936.0908	87.1299
2936.5730	87.211
2937.0552	87.2743
2937.5371	87.3309
2938.0193	87.3915
2938.5015	87.4628
2938.9836	87.5437
2939.4656	87.6266
2939.9478	87.7008
2940.4299	87.7581
2940.9121	87.7964
2941.3940	87.8199
2941.8762	87.8371
2942.3584	87.8566
2942.8406	87.8849
2943.3225	87.9255
2943.8047	87.9783
2944.2869	88.0408
2944.7690	88.1081
2945.2510	88.1753
2945.7332	88.2381
2946.2153	88.2947
2946.6975	88.3451
2947.1794	88.3888
2947.6616	88.4234
2948.1438	88.4452
2948.6260	88.452
2949.1079	88.4459
2949.5901	88.4336
2950.0723	88.4232
2950.5544	88.4186
2951.0364	88.4171
2951.5186	88.41
2952.0007	88.3881
2952.4829	88.3464
2952.9648	88.2859
2953.4470	88.2114
2953.9292	88.1275
2954.4114	88.0359
2954.8933	87.9354
2955.3755	87.8245
2955.8577	87.703
2956.3398	87.5723
2956.8218	87.4347
2957.3040	87.2916
2957.7861	87.1434
2958.2683	86.9885
2958.7502	86.823
2959.2324	86.6406
2959.7146	86.4332
2960.1968	86.1931
2960.6787	85.9164
2961.1609	85.6042
2961.6431	85.2614
2962.1252	84.8935
2962.6072	84.5036
2963.0894	84.091
2963.5715	83.6551
2964.0537	83.1998
2964.5356	82.7381
2965.0178	82.2939
2965.5000	81.8992
2965.9822	81.5886
2966.4641	81.3919
2966.9463	81.3271
2967.4285	81.3951
2967.9106	81.5793
2968.3926	81.8488
2968.8748	82.1658
2969.3569	82.4936
2969.8391	82.8028
2970.3213	83.0736
2970.8032	83.2942
2971.2854	83.4587
2971.7676	83.564
2972.2498	83.6099
2972.7317	83.6001
2973.2139	83.5432
2973.6960	83.4534
2974.1782	83.3489
2974.6602	83.2491
2975.1423	83.1703
2975.6245	83.1226
2976.1067	83.1072
2976.5886	83.1173
2977.0708	83.14
2977.5530	83.1612
2978.0352	83.1706
2978.5171	83.165
2978.9993	83.1492
2979.4814	83.133
2979.9636	83.1268
2980.4456	83.1369
2980.9277	83.1627
2981.4099	83.198
2981.8921	83.2345
2982.3740	83.2665
2982.8562	83.2944
2983.3384	83.325
2983.8206	83.3684
2984.3025	83.4355
2984.7847	83.5353
2985.2668	83.6747
2985.7490	83.8587
2986.2310	84.0902
2986.7131	84.3678
2987.1953	84.6843
2987.6775	85.027
2988.1594	85.3805
2988.6416	85.7316
2989.1238	86.0726
2989.6060	86.4019
2990.0879	86.7209
2990.5701	87.0306
2991.0522	87.3291
2991.5344	87.6132
2992.0164	87.8807
2992.4985	88.1326
2992.9807	88.3736
2993.4629	88.6091
2993.9448	88.8419
2994.4270	89.0705
2994.9092	89.2892
2995.3914	89.4914
2995.8733	89.6733
2996.3555	89.8353
2996.8376	89.9818
2997.3198	90.1184
2997.8018	90.2482
2998.2839	90.3702
2998.7661	90.4804
2999.2483	90.5745
2999.7302	90.6507
3000.2124	90.7112
3000.6946	90.7616
3001.1768	90.8084
3001.6587	90.8569
3002.1409	90.9096
3002.6230	90.966
3003.1052	91.0241
3003.5872	91.0817
3004.0693	91.1376
3004.5515	91.1931
3005.0337	91.2514
3005.5156	91.3163
3005.9978	91.3914
3006.4800	91.4776
3006.9622	91.5737
3007.4441	91.6758
3007.9263	91.779
3008.4084	91.8781
3008.8906	91.9694
3009.3726	92.052
3009.8547	92.1292
3010.3369	92.2071
3010.8191	92.2917
3011.3010	92.3843
3011.7832	92.4792
3012.2654	92.565
3012.7476	92.6306
3013.2295	92.6718
3013.7117	92.6935
3014.1938	92.7064
3014.6760	92.7201
3015.1580	92.7379
3015.6401	92.7566
3016.1223	92.7707
3016.6045	92.7776
3017.0864	92.779
3017.5686	92.7779
3018.0508	92.7745
3018.5330	92.765
3019.0149	92.7441
3019.4971	92.7099
3019.9792	92.666
3020.4614	92.6192
3020.9434	92.575
3021.4255	92.5335
3021.9077	92.4902
3022.3899	92.439
3022.8718	92.3769
3023.3540	92.3057
3023.8362	92.2298
3024.3184	92.1529
3024.8003	92.0746
3025.2825	91.9914
3025.7646	91.8983
3026.2468	91.793
3026.7288	91.6782
3027.2109	91.5609
3027.6931	91.4489
3028.1753	91.3468
3028.6572	91.2526
3029.1394	91.1581
3029.6216	91.0528
3030.1038	90.9283
3030.5857	90.7822
3031.0679	90.6176
3031.5500	90.4409
3032.0322	90.2575
3032.5142	90.071
3032.9963	89.8839
3033.4785	89.7014
3033.9607	89.5322
3034.4426	89.3878
3034.9248	89.2793
3035.4070	89.2144
3035.8892	89.1959
3036.3711	89.2219
3036.8533	89.2877
3037.3354	89.3873
3037.8176	89.5147
3038.2996	89.6659
3038.7817	89.8396
3039.2639	90.0364
3039.7461	90.2559
3040.2280	90.4929
3040.7102	90.7351
3041.1924	90.9655
3041.6746	91.1675
3042.1565	91.3314
3042.6387	91.457
3043.1208	91.5517
3043.6030	91.6244
3044.0850	91.6798
3044.5671	91.7164
3045.0493	91.73
3045.5315	91.718
3046.0134	91.6827
3046.4956	91.6302
3046.9778	91.5665
3047.4600	91.4953
3047.9419	91.4178
3048.4241	91.3355
3048.9063	91.2519
3049.3884	91.1712
3049.8704	91.0952
3050.3525	91.0194
3050.8347	90.9335
3051.3169	90.8253
3051.7988	90.6873
3052.2810	90.521
3052.7632	90.3378
3053.2454	90.1549
3053.7273	89.99
3054.2095	89.8565
3054.6917	89.7608
3055.1738	89.7027
3055.6558	89.6763
3056.1379	89.6732
3056.6201	89.685
3057.1023	89.7051
3057.5842	89.7301
3058.0664	89.7575
3058.5486	89.7839
3059.0308	89.8027
3059.5127	89.8042
3059.9949	89.7773
3060.4771	89.713
3060.9592	89.6081
3061.4412	89.4674
3061.9233	89.3041
3062.4055	89.1372
3062.8877	88.9882
3063.3696	88.8762
3063.8518	88.8138
3064.3340	88.8061
3064.8162	88.8525
3065.2981	88.9507
3065.7803	89.0997
3066.2625	89.2982
3066.7446	89.5397
3067.2266	89.8088
3067.7087	90.0813
3068.1909	90.3314
3068.6731	90.5406
3069.1550	90.704
3069.6372	90.8301
3070.1194	90.9342
3070.6016	91.0292
3071.0835	91.1203
3071.5657	91.2047
3072.0479	91.2765
3072.5300	91.3331
3073.0120	91.3763
3073.4941	91.4106
3073.9763	91.4388
3074.4585	91.4594
3074.9404	91.4675
3075.4226	91.4586
3075.9048	91.4316
3076.3870	91.389
3076.8689	91.3355
3077.3511	91.2761
3077.8333	91.2152
3078.3154	91.1577
3078.7974	91.1084
3079.2795	91.0711
3079.7617	91.0454
3080.2439	91.0261
3080.7258	91.0038
3081.2080	90.9697
3081.6902	90.9192
3082.1724	90.8536
3082.6543	90.7785
3083.1365	90.7002
3083.6187	90.622
3084.1008	90.5438
3084.5828	90.4634
3085.0649	90.3797
3085.5471	90.2942
3086.0293	90.211
3086.5112	90.1358
3086.9934	90.0737
3087.4756	90.0279
3087.9578	89.9991
3088.4397	89.9863
3088.9219	89.9865
3089.4041	89.9953
3089.8862	90.0078
3090.3682	90.019
3090.8503	90.0261
3091.3325	90.0286
3091.8147	90.029
3092.2966	90.0316
3092.7788	90.0395
3093.2610	90.0532
3093.7432	90.069
3094.2251	90.0798
3094.7073	90.0773
3095.1895	90.0551
3095.6716	90.0119
3096.1536	89.9519
3096.6357	89.8834
3097.1179	89.8162
3097.6001	89.7586
3098.0820	89.7162
3098.5642	89.6909
3099.0464	89.6809
3099.5286	89.6801
3100.0105	89.6774
3100.4927	89.6596
3100.9749	89.616
3101.4570	89.5438
3101.9390	89.4506
3102.4211	89.3512
3102.9033	89.2606
3103.3855	89.1865
3103.8674	89.127
3104.3496	89.0741
3104.8318	89.0215
3105.3140	88.969
3105.7959	88.9217
3106.2781	88.8835
3106.7603	88.8513
3107.2424	88.814
3107.7244	88.759
3108.2065	88.6806
3108.6887	88.5854
3109.1709	88.4895
3109.6528	88.4106
3110.1350	88.3582
3110.6172	88.3301
3111.0994	88.3144
3111.5813	88.2968
3112.0635	88.2676
3112.5457	88.2253
3113.0278	88.1748
3113.5098	88.1233
3113.9919	88.0768
3114.4741	88.0373
3114.9563	88.0031
3115.4382	87.9701
3115.9204	87.9338
3116.4026	87.8906
3116.8848	87.839
3117.3667	87.7802
3117.8489	87.7177
3118.3311	87.6561
3118.8132	87.6001
3119.2952	87.5522
3119.7773	87.5124
3120.2595	87.4788
3120.7417	87.449
3121.2236	87.4212
3121.7058	87.3948
3122.1880	87.3699
3122.6702	87.3461
3123.1521	87.3226
3123.6343	87.2982
3124.1165	87.2718
3124.5986	87.2426
3125.0806	87.2096
3125.5627	87.1704
3126.0449	87.1225
3126.5271	87.0642
3127.0090	86.9984
3127.4912	86.9335
3127.9734	86.8818
3128.4556	86.8547
3128.9375	86.8566
3129.4197	86.8817
3129.9019	86.9152
3130.3840	86.9394
3130.8660	86.9409
3131.3481	86.9157
3131.8303	86.8689
3132.3125	86.8118
3132.7944	86.7564
3133.2766	86.7118
3133.7588	86.6818
3134.2410	86.6651
3134.7229	86.6562
3135.2051	86.6477
3135.6873	86.6326
3136.1694	86.6072
3136.6514	86.5728
3137.1335	86.5353
3137.6157	86.5025
3138.0979	86.4808
3138.5798	86.4728
3139.0620	86.4781
3139.5442	86.4938
3140.0264	86.5162
3140.5083	86.5411
3140.9905	86.564
3141.4727	86.5808
3141.9548	86.5898
3142.4368	86.5925
3142.9189	86.5934
3143.4011	86.5975
3143.8833	86.6074
3144.3652	86.6214
3144.8474	86.6358
3145.3296	86.6475
3145.8118	86.6571
3146.2937	86.6694
3146.7759	86.6899
3147.2581	86.7215
3147.7402	86.7608
3148.2222	86.7992
3148.7043	86.8264
3149.1865	86.8362
3149.6687	86.8295
3150.1506	86.8142
3150.6328	86.8007
3151.1150	86.7965
3151.5972	86.8035
3152.0791	86.8189
3152.5613	86.8391
3153.0435	86.8624
3153.5256	86.8901
3154.0076	86.9232
3154.4897	86.961
3154.9719	87.0008
3155.4541	87.0402
3155.9360	87.0793
3156.4182	87.1202
3156.9004	87.1635
3157.3826	87.2065
3157.8645	87.2434
3158.3467	87.2699
3158.8289	87.2868
3159.3110	87.3012
3159.7930	87.3213
3160.2751	87.351
3160.7573	87.3868
3161.2395	87.4206
3161.7214	87.4449
3162.2036	87.4582
3162.6858	87.4655
3163.1680	87.4743
3163.6499	87.4903
3164.1321	87.5146
3164.6143	87.5456
3165.0964	87.5815
3165.5784	87.6224
3166.0605	87.6709
3166.5427	87.729
3167.0249	87.7961
3167.5068	87.8679
3167.9890	87.9362
3168.4712	87.9929
3168.9534	88.0328
3169.4353	88.0571
3169.9175	88.0737
3170.3997	88.094
3170.8818	88.1272
3171.3638	88.1746
3171.8459	88.2285
3172.3281	88.2755
3172.8103	88.3042
3173.2922	88.3117
3173.7744	88.306
3174.2566	88.3018
3174.7388	88.3139
3175.2207	88.3504
3175.7029	88.4101
3176.1851	88.4853
3176.6672	88.5649
3177.1492	88.6387
3177.6313	88.6996
3178.1135	88.7446
3178.5957	88.7756
3179.0776	88.7986
3179.5598	88.8228
3180.0420	88.8572
3180.5242	88.9068
3181.0061	88.9697
3181.4883	89.0369
3181.9705	89.0958
3182.4526	89.136
3182.9346	89.1547
3183.4167	89.158
3183.8989	89.1582
3184.3811	89.1687
3184.8630	89.1987
3185.3452	89.25
3185.8274	89.3177
3186.3096	89.3934
3186.7915	89.469
3187.2737	89.539
3187.7559	89.6009
3188.2380	89.6545
3188.7200	89.7003
3189.2021	89.7387
3189.6843	89.7707
3190.1665	89.7983
3190.6484	89.8256
3191.1306	89.858
3191.6128	89.8998
3192.0950	89.9527
3192.5769	90.0149
3193.0591	90.0827
3193.5413	90.1523
3194.0234	90.2211
3194.5054	90.2873
3194.9875	90.3476
3195.4697	90.3971
3195.9519	90.4309
3196.4338	90.4478
3196.9160	90.4534
3197.3982	90.4589
3197.8804	90.4756
3198.3623	90.5092
3198.8445	90.5565
3199.3267	90.6081
3199.8088	90.6544
3200.2908	90.6923
3200.7729	90.726
3201.2551	90.764
3201.7373	90.8129
3202.2192	90.873
3202.7014	90.9385
3203.1836	91.0004
3203.6658	91.0516
3204.1477	91.0895
3204.6299	91.1165
3205.1121	91.1386
3205.5942	91.1624
3206.0762	91.1932
3206.5583	91.2333
3207.0405	91.2815
3207.5227	91.3338
3208.0046	91.3839
3208.4868	91.426
3208.9690	91.4566
3209.4512	91.4757
3209.9331	91.4873
3210.4153	91.4984
3210.8975	91.517
3211.3796	91.5491
3211.8616	91.5964
3212.3438	91.6557
3212.8259	91.7201
3213.3081	91.7816
3213.7900	91.834
3214.2722	91.8747
3214.7544	91.904
3215.2366	91.9225
3215.7185	91.9313
3216.2007	91.9323
3216.6829	91.9303
3217.1650	91.9331
3217.6470	91.949
3218.1292	91.9826
3218.6113	92.0324
3219.0935	92.0912
3219.5754	92.1499
3220.0576	92.2021
3220.5398	92.2456
3221.0220	92.2816
3221.5039	92.3126
3221.9861	92.3402
3222.4683	92.3654
3222.9504	92.3891
3223.4324	92.4121
3223.9146	92.4351
3224.3967	92.4583
3224.8789	92.4817
3225.3608	92.5056
3225.8430	92.5302
3226.3252	92.5546
3226.8074	92.5768
3227.2893	92.5944
3227.7715	92.6068
3228.2537	92.6161
3228.7358	92.6261
3229.2178	92.6399
3229.7000	92.6566
3230.1821	92.6718
3230.6643	92.6796
3231.1462	92.6769
3231.6284	92.6647
3232.1106	92.648
3232.5928	92.6333
3233.0747	92.6258
3233.5569	92.6286
3234.0391	92.6422
3234.5212	92.6649
3235.0032	92.6919
3235.4854	92.7158
3235.9675	92.7264
3236.4497	92.7136
3236.9316	92.6707
3237.4138	92.5978
3237.8960	92.5024
3238.3782	92.3973
3238.8601	92.2964
3239.3423	92.2098
3239.8245	92.1405
3240.3066	92.0845
3240.7886	92.0339
3241.2708	91.9814
3241.7529	91.9235
3242.2351	91.8603
3242.7170	91.7941
3243.1992	91.7267
3243.6814	91.6587
3244.1636	91.5898
3244.6455	91.5196
3245.1277	91.4474
3245.6099	91.3711
3246.0920	91.287
3246.5740	91.1896
3247.0562	91.0728
3247.5383	90.9307
3248.0205	90.7571
3248.5024	90.5451
3248.9846	90.2872
3249.4668	89.9777
3249.9490	89.6152
3250.4309	89.2045
3250.9131	88.7565
3251.3953	88.2854
3251.8774	87.8059
3252.3594	87.3326
3252.8416	86.8814
3253.3237	86.4727
3253.8059	86.133
3254.2878	85.8925
3254.7700	85.778
3255.2522	85.8035
3255.7344	85.9609
3256.2163	86.217
3256.6985	86.5183
3257.1807	86.8046
3257.6628	87.0283
3258.1448	87.1675
3258.6270	87.2268
3259.1091	87.2261
3259.5913	87.1857
3260.0732	87.1187
3260.5554	87.0335
3261.0376	86.943
3261.5198	86.8693
3262.0017	86.8415
3262.4839	86.8868
3262.9661	87.0232
3263.4482	87.2569
3263.9302	87.587
3264.4124	88.0086
3264.8945	88.5133
3265.3767	89.0854
3265.8586	89.6992
3266.3408	90.3218
3266.8230	90.9212
3267.3052	91.4752
3267.7871	91.975
3268.2693	92.4227
3268.7515	92.8247
3269.2336	93.1862
3269.7156	93.5099
3270.1978	93.797
3270.6799	94.0496
3271.1621	94.2704
3271.6440	94.4625
3272.1262	94.6286
3272.6084	94.7711
3273.0906	94.8925
3273.5725	94.9954
3274.0547	95.0815
3274.5369	95.1509
3275.0190	95.2032
3275.5010	95.2383
3275.9832	95.2581
3276.4653	95.2663
3276.9475	95.2679
3277.4294	95.2679
3277.9116	95.2714
3278.3938	95.2834
3278.8760	95.3082
3279.3579	95.3479
3279.8401	95.3997
3280.3223	95.4558
3280.8044	95.5062
3281.2864	95.5434
3281.7686	95.5666
3282.2507	95.5813
3282.7329	95.5954
3283.2148	95.614
3283.6970	95.6366
3284.1792	95.6583
3284.6614	95.6753
3285.1433	95.6886
3285.6255	95.7038
3286.1077	95.727
3286.5898	95.7592
3287.0718	95.795
3287.5540	95.8257
3288.0361	95.8457
3288.5183	95.8564
3289.0002	95.8659
3289.4824	95.8825
3289.9646	95.9098
3290.4468	95.944
3290.9287	95.9776
3291.4109	96.005
3291.8931	96.0263
3292.3752	96.0462
3292.8572	96.0701
3293.3394	96.0995
3293.8215	96.1316
3294.3037	96.1608
3294.7856	96.1826
3295.2678	96.1947
3295.7500	96.1971
3296.2322	96.1905
3296.7141	96.1761
3297.1963	96.1574
3297.6785	96.1412
3298.1606	96.1371
3298.6426	96.1534
3299.1248	96.1926
3299.6069	96.2488
3300.0891	96.3084
3300.5710	96.3553
3301.0532	96.377
3301.5354	96.3691
3302.0176	96.3367
3302.4995	96.2923
3302.9817	96.2512
3303.4639	96.2263
3303.9460	96.2243
3304.4280	96.2441
3304.9102	96.2788
3305.3923	96.3194
3305.8745	96.3587
3306.3564	96.3937
3306.8386	96.4243
3307.3208	96.4507
3307.8030	96.4719
3308.2849	96.4851
3308.7671	96.4886
3309.2493	96.4832
3309.7314	96.4723
3310.2134	96.4589
3310.6956	96.4441
3311.1777	96.4272
3311.6599	96.4083
3312.1418	96.3909
3312.6240	96.3817
3313.1062	96.387
3313.5884	96.4083
3314.0703	96.441
3314.5525	96.4766
3315.0347	96.5075
3315.5168	96.531
3315.9988	96.5484
3316.4810	96.5629
3316.9631	96.5763
3317.4453	96.5878
3317.9272	96.5963
3318.4094	96.6014
3318.8916	96.6047
3319.3738	96.6075
3319.8557	96.6097
3320.3379	96.6085
3320.8201	96.6009
3321.3022	96.5855
3321.7842	96.5647
3322.2664	96.544
3322.7485	96.5302
3323.2307	96.5287
3323.7126	96.5416
3324.1948	96.5675
3324.6770	96.601
3325.1592	96.6341
3325.6411	96.6571
3326.1233	96.662
3326.6055	96.6459
3327.0876	96.6133
3327.5696	96.576
3328.0518	96.5491
3328.5339	96.5443
3329.0161	96.5643
3329.4980	96.6015
3329.9802	96.6415
3330.4624	96.6702
3330.9446	96.6807
3331.4265	96.6765
3331.9087	96.6681
3332.3909	96.6662
3332.8730	96.6755
3333.3550	96.692
3333.8372	96.7056
3334.3193	96.7068
3334.8015	96.6919
3335.2834	96.6656
3335.7656	96.6378
3336.2478	96.6195
3336.7300	96.6179
3337.2119	96.6353
3337.6941	96.6684
3338.1763	96.7105
3338.6584	96.7531
3339.1404	96.7873
3339.6226	96.8071
3340.1047	96.8116
3340.5869	96.8057
3341.0688	96.798
3341.5510	96.7961
3342.0332	96.8022
3342.5154	96.8126
3342.9973	96.8217
3343.4795	96.8262
3343.9617	96.8283
3344.4438	96.8332
3344.9258	96.8452
3345.4080	96.8635
3345.8901	96.8829
3346.3723	96.8972
3346.8542	96.9037
3347.3364	96.9053
3347.8186	96.9081
3348.3008	96.9177
3348.7827	96.9355
3349.2649	96.9578
3349.7471	96.9773
3350.2292	96.9866
3350.7112	96.9817
3351.1934	96.964
3351.6755	96.9408
3352.1577	96.9218
3352.6396	96.9155
3353.1218	96.9252
3353.6040	96.9482
3354.0862	96.9771
3354.5681	97.0035
3355.0503	97.0212
3355.5325	97.0282
3356.0146	97.0268
3356.4966	97.0223
3356.9788	97.0222
3357.4609	97.0341
3357.9431	97.0628
3358.4250	97.1075
3358.9072	97.1604
3359.3894	97.2088
3359.8716	97.2407
3360.3535	97.2505
3360.8357	97.2417
3361.3179	97.2257
3361.8000	97.2153
3362.2820	97.22
3362.7642	97.2425
3363.2463	97.2798
3363.7285	97.3255
3364.2104	97.372
3364.6926	97.4118
3365.1748	97.4378
3365.6570	97.4455
3366.1389	97.4344
3366.6211	97.4094
3367.1033	97.3793
3367.5854	97.3539
3368.0674	97.3407
3368.5496	97.3426
3369.0317	97.358
3369.5139	97.383
3369.9958	97.413
3370.4780	97.4446
3370.9602	97.475
3371.4424	97.503
3371.9243	97.5286
3372.4065	97.5532
3372.8887	97.5792
3373.3708	97.6089
3373.8528	97.6427
3374.3350	97.6785
3374.8171	97.7117
3375.2993	97.7365
3375.7813	97.7486
3376.2634	97.7468
3376.7456	97.7343
3377.2278	97.718
3377.7097	97.7069
3378.1919	97.709
3378.6741	97.7282
3379.1563	97.763
3379.6382	97.8068
3380.1204	97.851
3380.6025	97.8889
3381.0847	97.9184
3381.5667	97.9419
3382.0488	97.9633
3382.5310	97.9842
3383.0132	98.0035
3383.4951	98.0185
3383.9773	98.029
3384.4595	98.0388
3384.9417	98.054
3385.4236	98.0786
3385.9058	98.1107
3386.3879	98.1436
3386.8701	98.1695
3387.3521	98.1854
3387.8342	98.1942
3388.3164	98.2027
3388.7986	98.2158
3389.2805	98.2333
3389.7627	98.2507
3390.2449	98.2635
3390.7271	98.2714
3391.2090	98.2789
3391.6912	98.2924
3392.1733	98.3151
3392.6555	98.3452
3393.1375	98.3763
3393.6196	98.4019
3394.1018	98.419
3394.5840	98.4296
3395.0659	98.4381
3395.5481	98.449
3396.0303	98.4632
3396.5125	98.4781
3396.9944	98.4893
3397.4766	98.494
3397.9587	98.4939
3398.4409	98.4945
3398.9229	98.5027
3399.4050	98.5223
3399.8872	98.5523
3400.3694	98.5877
3400.8513	98.623
3401.3335	98.6549
3401.8157	98.6829
3402.2979	98.7069
3402.7798	98.7253
3403.2620	98.7353
3403.7441	98.7357
3404.2263	98.7301
3404.7083	98.7257
3405.1904	98.7297
3405.6726	98.7441
3406.1548	98.7644
3406.6367	98.7821
3407.1189	98.7912
3407.6011	98.792
3408.0833	98.7913
3408.5652	98.7978
3409.0474	98.8158
3409.5295	98.8434
3410.0117	98.8732
3410.4937	98.8976
3410.9758	98.9127
3411.4580	98.9203
3411.9402	98.9249
3412.4221	98.9305
3412.9043	98.9373
3413.3865	98.9418
3413.8687	98.9398
3414.3506	98.93
3414.8328	98.9164
3415.3149	98.9069
3415.7971	98.9095
3416.2791	98.9268
3416.7612	98.9551
3417.2434	98.9857
3417.7256	99.0107
3418.2075	99.0278
3418.6897	99.0417
3419.1719	99.0605
3419.6541	99.0907
3420.1360	99.132
3420.6182	99.1771
3421.1003	99.2151
3421.5825	99.237
3422.0645	99.2403
3422.5466	99.2288
3423.0288	99.2101
3423.5110	99.1915
3423.9929	99.1765
3424.4751	99.1642
3424.9573	99.1508
3425.4395	99.1334
3425.9214	99.1137
3426.4036	99.0992
3426.8857	99.1003
3427.3679	99.1247
3427.8499	99.1716
3428.3320	99.2304
3428.8142	99.2838
3429.2964	99.3165
3429.7783	99.3228
3430.2605	99.3093
3430.7427	99.291
3431.2249	99.2834
3431.7068	99.2931
3432.1890	99.3155
3432.6711	99.3384
3433.1533	99.3503
3433.6353	99.3478
3434.1174	99.3379
3434.5996	99.3323
3435.0818	99.3406
3435.5637	99.3637
3436.0459	99.3938
3436.5281	99.4196
3437.0103	99.4328
3437.4922	99.4319
3437.9744	99.4204
3438.4565	99.4039
3438.9387	99.3857
3439.4207	99.3677
3439.9028	99.3522
3440.3850	99.344
3440.8672	99.3487
3441.3491	99.3699
3441.8313	99.4058
3442.3135	99.4489
3442.7957	99.4884
3443.2776	99.5153
3443.7598	99.5255
3444.2419	99.5202
3444.7241	99.5041
3445.2061	99.4833
3445.6882	99.4632
3446.1704	99.447
3446.6526	99.4348
3447.1345	99.4247
3447.6167	99.4156
3448.0989	99.41
3448.5811	99.4134
3449.0630	99.4303
3449.5452	99.4593
3450.0273	99.4904
3450.5095	99.5087
3450.9915	99.5023
3451.4736	99.47
3451.9558	99.4234
3452.4380	99.3807
3452.9199	99.3572
3453.4021	99.3586
3453.8843	99.3809
3454.3665	99.4158
3454.8484	99.4561
3455.3306	99.4976
3455.8127	99.5369
3456.2949	99.569
3456.7769	99.5873
3457.2590	99.5884
3457.7412	99.5765
3458.2234	99.5634
3458.7053	99.5628
3459.1875	99.581
3459.6697	99.6117
3460.1519	99.6378
3460.6338	99.6414
3461.1160	99.6149
3461.5981	99.5667
3462.0803	99.5172
3462.5623	99.487
3463.0444	99.4855
3463.5266	99.5069
3464.0088	99.5358
3464.4907	99.5577
3464.9729	99.5667
3465.4551	99.5658
3465.9373	99.5628
3466.4192	99.5636
3466.9014	99.5685
3467.3835	99.574
3467.8657	99.5766
3468.3477	99.5763
3468.8298	99.5767
3469.3120	99.5821
3469.7942	99.5948
3470.2761	99.6136
3470.7583	99.6341
3471.2405	99.6516
3471.7227	99.663
3472.2046	99.6682
3472.6868	99.6695
3473.1689	99.671
3473.6511	99.6759
3474.1331	99.6858
3474.6152	99.6997
3475.0974	99.7143
3475.5796	99.7251
3476.0615	99.7283
3476.5437	99.722
3477.0259	99.7072
3477.5081	99.6873
3477.9900	99.6674
3478.4722	99.652
3478.9543	99.6434
3479.4365	99.6404
3479.9185	99.6397
3480.4006	99.6378
3480.8828	99.6339
3481.3650	99.6306
3481.8469	99.6329
3482.3291	99.6459
3482.8113	99.6714
3483.2935	99.7067
3483.7754	99.7461
3484.2576	99.7821
3484.7397	99.8082
3485.2219	99.8205
3485.7039	99.8187
3486.1860	99.8058
3486.6682	99.7859
3487.1504	99.7634
3487.6323	99.7417
3488.1145	99.7242
3488.5967	99.715
3489.0789	99.7192
3489.5608	99.7406
3490.0430	99.7776
3490.5251	99.8214
3491.0073	99.8568
3491.4893	99.8692
3491.9714	99.8523
3492.4536	99.814
3492.9358	99.7728
3493.4177	99.7482
3493.8999	99.7499
3494.3821	99.7729
3494.8643	99.8012
3495.3462	99.8194
3495.8284	99.8232
3496.3105	99.8227
3496.7927	99.8343
3497.2747	99.8689
3497.7568	99.9233
3498.2390	99.9812
3498.7212	100.022
3499.2031	100.03
3499.6853	100.001
3500.1675	99.9457
3500.6497	99.8775
3501.1316	99.8132
3501.6138	99.7653
3502.0959	99.7406
3502.5781	99.7378
3503.0601	99.7485
3503.5422	99.7614
3504.0244	99.7691
3504.5066	99.773
3504.9885	99.782
3505.4707	99.8055
3505.9529	99.846
3506.4351	99.8954
3506.9170	99.939
3507.3992	99.9633
3507.8813	99.9635
3508.3635	99.9464
3508.8455	99.9265
3509.3276	99.9181
3509.8098	99.9276
3510.2920	99.9524
3510.7739	99.9846
3511.2561	100.015
3511.7383	100.038
3512.2205	100.049
3512.7024	100.047
3513.1846	100.036
3513.6667	100.021
3514.1489	100.009
3514.6309	100.001
3515.1130	99.9941
3515.5952	99.9826
3516.0774	99.9627
3516.5593	99.9376
3517.0415	99.916
3517.5237	99.9065
3518.0059	99.9116
3518.4878	99.9245
3518.9700	99.9337
3519.4521	99.9308
3519.9343	99.9173
3520.4163	99.904
3520.8984	99.9045
3521.3806	99.927
3521.8628	99.9684
3522.3447	100.014
3522.8269	100.047
3523.3091	100.054
3523.7913	100.042
3524.2732	100.023
3524.7554	100.015
3525.2375	100.028
3525.7197	100.058
3526.2017	100.095
3526.6838	100.123
3527.1660	100.134
3527.6482	100.128
3528.1301	100.11
3528.6123	100.09
3529.0945	100.074
3529.5767	100.064
3530.0586	100.058
3530.5408	100.058
3531.0229	100.061
3531.5051	100.07
3531.9871	100.082
3532.4692	100.096
3532.9514	100.111
3533.4336	100.126
3533.9155	100.141
3534.3977	100.156
3534.8799	100.168
3535.3621	100.172
3535.8440	100.164
3536.3262	100.143
3536.8083	100.115
3537.2905	100.088
3537.7725	100.073
3538.2546	100.074
3538.7368	100.089
3539.2190	100.113
3539.7009	100.136
3540.1831	100.156
3540.6653	100.173
3541.1475	100.192
3541.6294	100.214
3542.1116	100.24
3542.5938	100.266
3543.0759	100.285
3543.5579	100.295
3544.0400	100.298
3544.5222	100.296
3545.0044	100.291
3545.4863	100.283
3545.9685	100.268
3546.4507	100.247
3546.9329	100.221
3547.4148	100.199
3547.8970	100.188
3548.3792	100.196
3548.8613	100.221
3549.3433	100.26
3549.8254	100.306
3550.3076	100.353
3550.7898	100.394
3551.2717	100.427
3551.7539	100.447
3552.2361	100.454
3552.7183	100.447
3553.2002	100.425
3553.6824	100.389
3554.1646	100.345
3554.6467	100.3
3555.1287	100.265
3555.6108	100.248
3556.0930	100.259
3556.5752	100.298
3557.0571	100.357
3557.5393	100.424
3558.0215	100.483
3558.5037	100.521
3558.9856	100.528
3559.4678	100.505
3559.9500	100.459
3560.4321	100.407
3560.9141	100.366
3561.3962	100.347
3561.8784	100.351
3562.3606	100.371
3562.8425	100.391
3563.3247	100.4
3563.8069	100.396
3564.2891	100.386
3564.7710	100.383
3565.2532	100.398
3565.7354	100.429
3566.2175	100.469
3566.6995	100.505
3567.1816	100.535
3567.6638	100.567
3568.1460	100.607
3568.6279	100.653
3569.1101	100.688
3569.5923	100.699
3570.0745	100.679
3570.5564	100.633
3571.0386	100.576
3571.5208	100.528
3572.0029	100.499
3572.4849	100.489
3572.9670	100.491
3573.4492	100.493
3573.9314	100.491
3574.4133	100.485
3574.8955	100.484
3575.3777	100.491
3575.8599	100.51
3576.3418	100.538
3576.8240	100.568
3577.3062	100.594
3577.7883	100.61
3578.2703	100.612
3578.7524	100.601
3579.2346	100.581
3579.7168	100.555
3580.1987	100.527
3580.6809	100.499
3581.1631	100.474
3581.6453	100.459
3582.1272	100.459
3582.6094	100.48
3583.0916	100.52
3583.5737	100.567
3584.0557	100.607
3584.5378	100.627
3585.0200	100.62
3585.5022	100.589
3585.9841	100.546
3586.4663	100.504
3586.9485	100.475
3587.4307	100.46
3587.9126	100.457
3588.3948	100.464
3588.8770	100.479
3589.3591	100.497
3589.8411	100.511
3590.3232	100.516
3590.8054	100.506
3591.2876	100.485
3591.7695	100.46
3592.2517	100.442
3592.7339	100.438
3593.2161	100.45
3593.6980	100.474
3594.1802	100.507
3594.6624	100.552
3595.1445	100.607
3595.6265	100.668
3596.1086	100.72
3596.5908	100.749
3597.0730	100.747
3597.5549	100.713
3598.0371	100.659
3598.5193	100.601
3599.0015	100.556
3599.4834	100.529
3599.9656	100.518
3600.4478	100.511
3600.9299	100.501
3601.4119	100.489
3601.8940	100.482
3602.3762	100.489
3602.8584	100.509
3603.3403	100.534
3603.8225	100.551
3604.3047	100.553
3604.7869	100.54
3605.2688	100.525
3605.7510	100.521
3606.2332	100.538
3606.7153	100.576
3607.1973	100.622
3607.6794	100.666
3608.1616	100.695
3608.6438	100.705
3609.1257	100.695
3609.6079	100.668
3610.0901	100.625
3610.5723	100.574
3611.0542	100.52
3611.5364	100.474
3612.0186	100.442
3612.5007	100.428
3612.9827	100.426
3613.4648	100.427
3613.9470	100.428
3614.4292	100.431
3614.9111	100.444
3615.3933	100.47
3615.8755	100.508
3616.3577	100.555
3616.8396	100.606
3617.3218	100.658
3617.8040	100.707
3618.2861	100.748
3618.7681	100.771
3619.2502	100.77
3619.7324	100.744
3620.2146	100.704
3620.6965	100.664
3621.1787	100.635
3621.6609	100.62
3622.1431	100.617
3622.6250	100.618
3623.1072	100.615
3623.5894	100.601
3624.0715	100.577
3624.5535	100.551
3625.0356	100.536
3625.5178	100.544
3626.0000	100.582
3626.4819	100.645
3626.9641	100.719
3627.4463	100.782
3627.9285	100.801
3628.4104	100.75
3628.8926	100.647
3629.3748	100.557
3629.8569	100.522
3630.3389	100.53
3630.8210	100.554
3631.3032	100.571
3631.7854	100.571
3632.2673	100.557
3632.7495	100.542
3633.2317	100.543
3633.7139	100.566
3634.1958	100.601
3634.6780	100.626
3635.1602	100.627
3635.6423	100.601
3636.1243	100.557
3636.6064	100.509
3637.0886	100.474
3637.5708	100.463
3638.0527	100.483
3638.5349	100.528
3639.0171	100.589
3639.4993	100.648
3639.9812	100.691
3640.4634	100.704
3640.9456	100.689
3641.4277	100.656
3641.9097	100.626
3642.3918	100.618
3642.8740	100.633
3643.3562	100.658
3643.8381	100.676
3644.3203	100.674
3644.8025	100.655
3645.2847	100.633
3645.7666	100.626
3646.2488	100.647
3646.7310	100.691
3647.2131	100.734
3647.6951	100.748
3648.1772	100.724
3648.6594	100.678
3649.1416	100.634
3649.6235	100.61
3650.1057	100.605
3650.5879	100.602
3651.0701	100.587
3651.5520	100.562
3652.0342	100.539
3652.5164	100.527
3652.9985	100.527
3653.4805	100.531
3653.9626	100.528
3654.4448	100.506
3654.9270	100.463
3655.4089	100.414
3655.8911	100.383
3656.3733	100.39
3656.8555	100.425
3657.3374	100.465
3657.8196	100.488
3658.3018	100.49
3658.7839	100.476
3659.2659	100.459
3659.7480	100.451
3660.2302	100.459
3660.7124	100.481
3661.1943	100.508
3661.6765	100.53
3662.1587	100.54
3662.6409	100.538
3663.1228	100.528
3663.6050	100.518
3664.0872	100.517
3664.5693	100.531
3665.0513	100.56
3665.5334	100.598
3666.0156	100.637
3666.4978	100.666
3666.9797	100.68
3667.4619	100.678
3667.9441	100.67
3668.4263	100.671
3668.9082	100.698
3669.3904	100.756
3669.8726	100.827
3670.3547	100.875
3670.8367	100.878
3671.3188	100.847
3671.8010	100.808
3672.2832	100.784
3672.7651	100.781
3673.2473	100.797
3673.7295	100.819
3674.2117	100.827
3674.6936	100.8
3675.1758	100.742
3675.6580	100.699
3676.1401	100.696
3676.6221	100.721
3677.1042	100.75
3677.5864	100.771
3678.0686	100.78
3678.5505	100.778
3679.0327	100.772
3679.5149	100.766
3679.9971	100.762
3680.4790	100.759
3680.9612	100.756
3681.4434	100.753
3681.9255	100.751
3682.4075	100.752
3682.8896	100.757
3683.3718	100.761
3683.8540	100.762
3684.3359	100.756
3684.8181	100.743
3685.3003	100.73
3685.7825	100.724
3686.2644	100.733
3686.7466	100.761
3687.2288	100.802
3687.7109	100.839
3688.1929	100.852
3688.6750	100.834
3689.1572	100.802
3689.6394	100.779
3690.1213	100.776
3690.6035	100.789
3691.0857	100.81
3691.5679	100.827
3692.0498	100.837
3692.5320	100.844
3693.0142	100.854
3693.4963	100.867
3693.9783	100.877
3694.4604	100.872
3694.9426	100.842
3695.4248	100.784
3695.9067	100.708
3696.3889	100.633
3696.8711	100.58
3697.3533	100.566
3697.8352	100.595
3698.3174	100.657
3698.7996	100.735
3699.2817	100.814
3699.7637	100.879
3700.2458	100.925
3700.7280	100.942
3701.2102	100.925
3701.6921	100.875
3702.1743	100.805
3702.6565	100.734
3703.1387	100.677
3703.6206	100.641
3704.1028	100.624
3704.5850	100.62
3705.0671	100.62
3705.5491	100.615
3706.0313	100.602
3706.5134	100.586
3706.9956	100.576
3707.4775	100.587
3707.9597	100.628
3708.4419	100.698
3708.9241	100.778
3709.4060	100.839
3709.8882	100.862
3710.3704	100.843
3710.8525	100.799
3711.3345	100.751
3711.8167	100.718
3712.2988	100.705
3712.7810	100.699
3713.2629	100.689
3713.7451	100.674
3714.2273	100.663
3714.7095	100.667
3715.1914	100.693
3715.6736	100.735
3716.1558	100.781
3716.6379	100.815
3717.1199	100.829
3717.6021	100.823
3718.0842	100.806
3718.5664	100.789
3719.0483	100.779
3719.5305	100.777
3720.0127	100.782
3720.4949	100.786
3720.9768	100.787
3721.4590	100.777
3721.9412	100.753
3722.4233	100.719
3722.9053	100.687
3723.3875	100.668
3723.8696	100.665
3724.3518	100.677
3724.8337	100.693
3725.3159	100.702
3725.7981	100.698
3726.2803	100.685
3726.7622	100.677
3727.2444	100.684
3727.7266	100.705
3728.2087	100.732
3728.6907	100.753
3729.1729	100.765
3729.6550	100.767
3730.1372	100.762
3730.6191	100.754
3731.1013	100.742
3731.5835	100.727
3732.0657	100.713
3732.5476	100.708
3733.0298	100.718
3733.5120	100.744
3733.9941	100.777
3734.4761	100.797
3734.9583	100.785
3735.4404	100.737
3735.9226	100.683
3736.4045	100.661
3736.8867	100.689
3737.3689	100.758
3737.8511	100.839
3738.3330	100.902
3738.8152	100.923
3739.2974	100.895
3739.7795	100.827
3740.2615	100.741
3740.7437	100.661
3741.2258	100.6
3741.7080	100.559
3742.1899	100.528
3742.6721	100.504
3743.1543	100.497
3743.6365	100.531
3744.1184	100.621
3744.6006	100.72
3745.0828	100.76
3745.5649	100.748
3746.0469	100.722
3746.5291	100.71
3747.0112	100.728
3747.4934	100.785
3747.9753	100.877
3748.4575	100.979
3748.9397	101.042
3749.4219	101.029
3749.9038	100.95
3750.3860	100.842
3750.8682	100.742
3751.3503	100.68
3751.8323	100.677
3752.3145	100.725
3752.7966	100.785
3753.2788	100.82
3753.7607	100.825
3754.2429	100.808
3754.7251	100.785
3755.2073	100.769
3755.6892	100.767
3756.1714	100.774
3756.6536	100.771
3757.1357	100.747
3757.6177	100.702
3758.0999	100.648
3758.5820	100.605
3759.0642	100.591
3759.5461	100.61
3760.0283	100.643
3760.5105	100.668
3760.9927	100.676
3761.4746	100.67
3761.9568	100.66
3762.4390	100.658
3762.9211	100.667
3763.4031	100.685
3763.8853	100.702
3764.3674	100.71
3764.8496	100.704
3765.3315	100.686
3765.8137	100.663
3766.2959	100.638
3766.7781	100.615
3767.2600	100.591
3767.7422	100.571
3768.2244	100.564
3768.7065	100.581
3769.1885	100.63
3769.6707	100.698
3770.1528	100.754
3770.6350	100.775
3771.1169	100.76
3771.5991	100.723
3772.0813	100.682
3772.5635	100.652
3773.0454	100.641
3773.5276	100.651
3774.0098	100.676
3774.4919	100.707
3774.9739	100.732
3775.4561	100.743
3775.9382	100.737
3776.4204	100.715
3776.9023	100.682
3777.3845	100.645
3777.8667	100.612
3778.3489	100.588
3778.8308	100.58
3779.3130	100.587
3779.7952	100.603
3780.2773	100.619
3780.7593	100.627
3781.2415	100.626
3781.7236	100.615
3782.2058	100.596
3782.6877	100.574
3783.1699	100.555
3783.6521	100.546
3784.1343	100.55
3784.6162	100.569
3785.0984	100.598
3785.5806	100.631
3786.0627	100.659
3786.5447	100.674
3787.0269	100.674
3787.5090	100.659
3787.9912	100.636
3788.4731	100.617
3788.9553	100.612
3789.4375	100.626
3789.9197	100.654
3790.4016	100.684
3790.8838	100.7
3791.3660	100.692
3791.8481	100.662
3792.3301	100.617
3792.8123	100.57
3793.2944	100.532
3793.7766	100.505
3794.2585	100.487
3794.7407	100.474
3795.2229	100.466
3795.7051	100.466
3796.1870	100.477
3796.6692	100.499
3797.1514	100.522
3797.6335	100.536
3798.1155	100.538
3798.5977	100.529
3799.0798	100.516
3799.5620	100.507
3800.0439	100.51
3800.5261	100.532
3801.0083	100.568
3801.4905	100.6
3801.9724	100.617
3802.4546	100.621
3802.9368	100.62
3803.4189	100.617
3803.9009	100.612
3804.3831	100.604
3804.8652	100.591
3805.3474	100.577
3805.8293	100.571
3806.3115	100.583
3806.7937	100.613
3807.2759	100.647
3807.7578	100.669
3808.2400	100.672
3808.7222	100.659
3809.2043	100.635
3809.6863	100.605
3810.1685	100.574
3810.6506	100.545
3811.1328	100.524
3811.6147	100.513
3812.0969	100.514
3812.5791	100.524
3813.0613	100.536
3813.5432	100.545
3814.0254	100.546
3814.5076	100.54
3814.9897	100.535
3815.4717	100.54
3815.9539	100.559
3816.4360	100.585
3816.9182	100.605
3817.4001	100.615
3817.8823	100.618
3818.3645	100.621
3818.8467	100.631
3819.3286	100.654
3819.8108	100.695
3820.2930	100.75
3820.7751	100.8
3821.2571	100.822
3821.7393	100.812
3822.2214	100.78
3822.7036	100.738
3823.1855	100.694
3823.6677	100.649
3824.1499	100.609
3824.6321	100.575
3825.1140	100.554
3825.5962	100.545
3826.0784	100.549
3826.5605	100.559
3827.0425	100.571
3827.5247	100.58
3828.0068	100.584
3828.4890	100.583
3828.9709	100.581
3829.4531	100.58
3829.9353	100.585
3830.4175	100.602
3830.8994	100.63
3831.3816	100.658
3831.8638	100.676
3832.3459	100.677
3832.8279	100.665
3833.3101	100.648
3833.7922	100.63
3834.2744	100.616
3834.7563	100.604
3835.2385	100.593
3835.7207	100.581
3836.2029	100.569
3836.6848	100.56
3837.1670	100.557
3837.6492	100.559
3838.1313	100.561
3838.6133	100.558
3839.0955	100.546
3839.5776	100.524
3840.0598	100.494
3840.5417	100.462
3841.0239	100.437
3841.5061	100.428
3841.9883	100.439
3842.4702	100.468
3842.9524	100.506
3843.4346	100.542
3843.9167	100.565
3844.3987	100.574
3844.8809	100.577
3845.3630	100.584
3845.8452	100.598
3846.3271	100.613
3846.8093	100.619
3847.2915	100.61
3847.7737	100.585
3848.2556	100.553
3848.7378	100.526
3849.2200	100.514
3849.7021	100.518
3850.1841	100.533
3850.6663	100.549
3851.1484	100.558
3851.6306	100.551
3852.1125	100.527
3852.5947	100.49
3853.0769	100.459
3853.5591	100.465
3854.0410	100.513
3854.5232	100.581
3855.0054	100.644
3855.4875	100.689
3855.9695	100.712
3856.4517	100.708
3856.9338	100.68
3857.4160	100.634
3857.8979	100.585
3858.3801	100.544
3858.8623	100.515
3859.3445	100.496
3859.8264	100.485
3860.3086	100.48
3860.7908	100.486
3861.2729	100.505
3861.7549	100.535
3862.2371	100.567
3862.7192	100.592
3863.2014	100.604
3863.6833	100.604
3864.1655	100.592
3864.6477	100.575
3865.1299	100.562
3865.6118	100.555
3866.0940	100.552
3866.5762	100.55
3867.0583	100.545
3867.5403	100.537
3868.0225	100.529
3868.5046	100.527
3868.9868	100.539
3869.4688	100.562
3869.9509	100.583
3870.4331	100.588
3870.9153	100.578
3871.3972	100.56
3871.8794	100.543
3872.3616	100.531
3872.8438	100.527
3873.3257	100.53
3873.8079	100.534
3874.2900	100.537
3874.7722	100.538
3875.2542	100.539
3875.7363	100.542
3876.2185	100.546
3876.7007	100.55
3877.1826	100.552
3877.6648	100.555
3878.1470	100.56
3878.6292	100.57
3879.1111	100.584
3879.5933	100.598
3880.0754	100.606
3880.5576	100.602
3881.0396	100.586
3881.5217	100.565
3882.0039	100.544
3882.4861	100.529
3882.9680	100.525
3883.4502	100.534
3883.9324	100.557
3884.4146	100.588
3884.8965	100.613
3885.3787	100.617
3885.8608	100.596
3886.3430	100.564
3886.8250	100.536
3887.3071	100.52
3887.7893	100.513
3888.2715	100.509
3888.7534	100.502
3889.2356	100.488
3889.7178	100.469
3890.2000	100.454
3890.6819	100.452
3891.1641	100.463
3891.6462	100.481
3892.1284	100.493
3892.6104	100.496
3893.0925	100.492
3893.5747	100.488
3894.0569	100.489
3894.5388	100.495
3895.0210	100.504
3895.5032	100.51
3895.9854	100.511
3896.4673	100.509
3896.9495	100.512
3897.4316	100.525
3897.9138	100.552
3898.3958	100.588
3898.8779	100.617
3899.3601	100.622
3899.8423	100.598
3900.3242	100.552
3900.8064	100.495
3901.2886	100.443
3901.7708	100.405
3902.2527	100.388
3902.7349	100.388
3903.2170	100.4
3903.6992	100.416
3904.1812	100.429
3904.6633	100.433
3905.1455	100.428
3905.6277	100.417
3906.1096	100.407
3906.5918	100.404
3907.0740	100.413
3907.5562	100.43
3908.0381	100.45
3908.5203	100.463
3909.0024	100.462
3909.4846	100.448
3909.9666	100.429
3910.4487	100.417
3910.9309	100.42
3911.4131	100.439
3911.8950	100.466
3912.3772	100.491
3912.8594	100.503
3913.3416	100.501
3913.8235	100.488
3914.3057	100.472
3914.7878	100.461
3915.2700	100.463
3915.7520	100.478
3916.2341	100.501
3916.7163	100.52
3917.1985	100.524
3917.6804	100.512
3918.1626	100.49
3918.6448	100.469
3919.1270	100.459
3919.6089	100.462
3920.0911	100.473
3920.5732	100.484
3921.0554	100.487
3921.5374	100.483
3922.0195	100.476
3922.5017	100.473
3922.9839	100.476
3923.4658	100.485
3923.9480	100.5
3924.4302	100.518
3924.9124	100.538
3925.3943	100.552
3925.8765	100.554
3926.3586	100.538
3926.8408	100.503
3927.3228	100.458
3927.8049	100.417
3928.2871	100.395
3928.7693	100.401
3929.2512	100.433
3929.7334	100.48
3930.2156	100.529
3930.6978	100.57
3931.1797	100.6
3931.6619	100.614
3932.1440	100.609
3932.6262	100.586
3933.1082	100.551
3933.5903	100.513
3934.0725	100.478
3934.5547	100.452
3935.0366	100.433
3935.5188	100.421
3936.0010	100.412
3936.4832	100.405
3936.9651	100.4
3937.4473	100.4
3937.9294	100.409
3938.4116	100.426
3938.8936	100.45
3939.3757	100.479
3939.8579	100.506
3940.3401	100.527
3940.8220	100.537
3941.3042	100.536
3941.7864	100.522
3942.2686	100.501
3942.7505	100.476
3943.2327	100.452
3943.7148	100.435
3944.1970	100.426
3944.6790	100.428
3945.1611	100.439
3945.6433	100.459
3946.1255	100.48
3946.6074	100.496
3947.0896	100.503
3947.5718	100.502
3948.0540	100.497
3948.5359	100.493
3949.0181	100.492
3949.5002	100.491
3949.9824	100.489
3950.4644	100.483
3950.9465	100.474
3951.4287	100.467
3951.9109	100.464
3952.3928	100.464
3952.8750	100.465
3953.3572	100.465
3953.8394	100.46
3954.3213	100.451
3954.8035	100.44
3955.2856	100.432
3955.7678	100.427
3956.2500	100.427
3956.7319	100.428
3957.2141	100.428
3957.6963	100.426
3958.1785	100.424
3958.6604	100.427
3959.1426	100.436
3959.6248	100.45
3960.1069	100.462
3960.5889	100.464
3961.0710	100.454
3961.5532	100.433
3962.0354	100.412
3962.5173	100.398
3962.9995	100.397
3963.4817	100.405
3963.9639	100.413
3964.4458	100.414
3964.9280	100.408
3965.4102	100.397
3965.8923	100.388
3966.3743	100.386
3966.8564	100.393
3967.3386	100.405
3967.8208	100.42
3968.3027	100.433
3968.7849	100.443
3969.2671	100.449
3969.7493	100.451
3970.2312	100.446
3970.7134	100.437
3971.1956	100.427
3971.6777	100.419
3972.1597	100.417
3972.6418	100.421
3973.1240	100.431
3973.6062	100.444
3974.0881	100.461
3974.5703	100.481
3975.0525	100.501
3975.5347	100.514
3976.0166	100.513
3976.4988	100.495
3976.9810	100.463
3977.4631	100.424
3977.9451	100.39
3978.4272	100.367
3978.9094	100.358
3979.3916	100.36
3979.8735	100.369
3980.3557	100.379
3980.8379	100.387
3981.3201	100.391
3981.8020	100.39
3982.2842	100.383
3982.7664	100.371
3983.2485	100.357
3983.7305	100.346
3984.2126	100.343
3984.6948	100.353
3985.1770	100.375
3985.6589	100.401
3986.1411	100.423
3986.6233	100.433
3987.1055	100.43
3987.5874	100.42
3988.0696	100.409
3988.5518	100.405
3989.0339	100.409
3989.5159	100.418
3989.9980	100.428
3990.4802	100.436
3990.9624	100.441
3991.4443	100.441
3991.9265	100.435
3992.4087	100.42
3992.8909	100.396
3993.3728	100.366
3993.8550	100.339
3994.3372	100.32
3994.8193	100.311
3995.3013	100.309
3995.7834	100.305
3996.2656	100.297
3996.7478	100.286
3997.2297	100.275
3997.7119	100.27
3998.1941	100.274
3998.6763	100.284
3999.1582	100.298
3999.6404	100.313
4000.1226	100.329
4000.6047	100.342
4001.0867	100.349
4001.5688	100.347
4002.0510	100.335
4002.5332	100.321
4003.0151	100.311
4003.4973	100.315
4003.9795	100.333
4004.4617	100.361
4004.9436	100.388
4005.4258	100.406
4005.9080	100.412
4006.3901	100.406
4006.8721	100.394
4007.3542	100.382
4007.8364	100.371
4008.3186	100.362
4008.8005	100.355
4009.2827	100.347
4009.7649	100.339
4010.2471	100.332
4010.7290	100.328
4011.2112	100.327
4011.6934	100.33
4012.1755	100.338
4012.6575	100.347
4013.1396	100.356
4013.6218	100.365
4014.1040	100.372
4014.5859	100.374
4015.0681	100.368
4015.5503	100.351
4016.0325	100.322
4016.5144	100.286
4016.9966	100.253
4017.4788	100.233
4017.9609	100.232
4018.4429	100.247
4018.9250	100.269
4019.4072	100.287
4019.8894	100.292
4020.3713	100.284
4020.8535	100.266
4021.3357	100.249
4021.8179	100.24
4022.2998	100.246
4022.7820	100.265
4023.2642	100.291
4023.7463	100.314
4024.2283	100.324
4024.7104	100.315
4025.1926	100.292
4025.6748	100.266
4026.1567	100.251
4026.6389	100.256
4027.1211	100.28
4027.6033	100.311
4028.0852	100.334
4028.5674	100.338
4029.0496	100.316
4029.5317	100.277
4030.0137	100.23
4030.4958	100.19
4030.9780	100.165
4031.4602	100.158
4031.9421	100.162
4032.4243	100.169
4032.9065	100.168
4033.3887	100.155
4033.8706	100.132
4034.3528	100.107
4034.8350	100.089
4035.3171	100.084
4035.7991	100.092
4036.2813	100.109
4036.7634	100.128
4037.2456	100.141
4037.7275	100.142
4038.2097	100.129
4038.6919	100.107
4039.1741	100.086
4039.6560	100.075
4040.1382	100.08
4040.6204	100.097
4041.1025	100.116
4041.5845	100.123
4042.0667	100.109
4042.5488	100.078
4043.0310	100.041
4043.5129	100.01
4043.9951	99.9947
4044.4773	99.9944
4044.9595	100.002
4045.4414	100.008
4045.9236	100.002
4046.4058	99.981
4046.8879	99.9484
4047.3699	99.9129
4047.8521	99.8869
4048.3342	99.8813
4048.8164	99.9
4049.2983	99.9364
4049.7805	99.976
4050.2627	100.002
4050.7449	100.006
4051.2268	99.9867
4051.7090	99.9552
4052.1912	99.923
4052.6733	99.897
4053.1553	99.8772
4053.6375	99.8586
4054.1196	99.8371
4054.6018	99.8128
4055.0837	99.7893
4055.5659	99.7703
4056.0481	99.7567
4056.5303	99.7468
4057.0122	99.7391
4057.4944	99.7359
4057.9766	99.7426
4058.4587	99.7647
4058.9407	99.8023
4059.4229	99.8484
4059.9050	99.8915
4060.3872	99.9222
4060.8691	99.9384
4061.3513	99.947
4061.8335	99.9588
4062.3157	99.9815
4062.7976	100.014
4063.2798	100.046
4063.7620	100.065
4064.2441	100.063
4064.7261	100.04
4065.2083	100.008
4065.6904	99.9793
4066.1726	99.9652
4066.6545	99.97
4067.1367	99.9911
4067.6189	100.021
4068.1011	100.052
4068.5830	100.074
4069.0652	100.084
4069.5474	100.078
4070.0295	100.062
4070.5115	100.042
4070.9937	100.028
4071.4758	100.025
4071.9580	100.033
4072.4399	100.047
4072.9221	100.06
4073.4043	100.068
4073.8865	100.073
4074.3684	100.078
4074.8506	100.085
4075.3328	100.088
4075.8149	100.084
4076.2969	100.072
4076.7791	100.056
4077.2612	100.047
4077.7434	100.047
4078.2253	100.055
4078.7075	100.065
4079.1897	100.071
4079.6719	100.075
4080.1538	100.084
4080.6360	100.105
4081.1182	100.138
4081.6003	100.177
4082.0823	100.213
4082.5645	100.239
4083.0466	100.25
4083.5288	100.247
4084.0107	100.229
4084.4929	100.198
4084.9751	100.16
4085.4573	100.125
4085.9392	100.102
4086.4214	100.097
4086.9036	100.107
4087.3857	100.119
4087.8677	100.123
4088.3499	100.115
4088.8320	100.098
4089.3142	100.083
4089.7961	100.076
4090.2783	100.079
4090.7605	100.09
4091.2427	100.104
4091.7246	100.123
4092.2068	100.148
4092.6890	100.178
4093.1711	100.207
4093.6531	100.228
4094.1353	100.237
4094.6174	100.236
4095.0996	100.234
4095.5815	100.238
4096.0640	100.254
4096.5459	100.277
4097.0278	100.301
4097.5103	100.319
4097.9922	100.329
4098.4741	100.332
4098.9565	100.33
4099.4385	100.326
4099.9209	100.32
4100.4028	100.31
4100.8848	100.294
4101.3672	100.273
4101.8491	100.25
4102.3311	100.23
4102.8135	100.22
4103.2954	100.222
4103.7778	100.237
4104.2598	100.259
4104.7417	100.281
4105.2241	100.296
4105.7061	100.304
4106.1880	100.307
4106.6704	100.31
4107.1523	100.315
4107.6348	100.321
4108.1167	100.322
4108.5986	100.314
4109.0811	100.3
4109.5630	100.283
4110.0449	100.269
4110.5273	100.262
4111.0093	100.26
4111.4917	100.26
4111.9736	100.259
4112.4556	100.257
4112.9380	100.258
4113.4199	100.267
4113.9019	100.287
4114.3843	100.317
4114.8662	100.35
4115.3486	100.372
4115.8306	100.371
4116.3125	100.345
4116.7949	100.301
4117.2769	100.253
4117.7588	100.221
4118.2412	100.214
4118.7231	100.232
4119.2056	100.263
4119.6875	100.298
4120.1694	100.327
4120.6519	100.351
4121.1338	100.373
4121.6157	100.394
4122.0981	100.411
4122.5801	100.418
4123.0625	100.41
4123.5444	100.388
4124.0264	100.356
4124.5088	100.319
4124.9907	100.285
4125.4727	100.26
4125.9551	100.246
4126.4370	100.242
4126.9194	100.246
4127.4014	100.254
4127.8833	100.262
4128.3657	100.271
4128.8477	100.281
4129.3296	100.291
4129.8120	100.301
4130.2939	100.306
4130.7764	100.304
4131.2583	100.296
4131.7402	100.288
4132.2227	100.284
4132.7046	100.287
4133.1865	100.296
4133.6689	100.306
4134.1509	100.314
4134.6333	100.32
4135.1152	100.326
4135.5972	100.335
4136.0796	100.346
4136.5615	100.352
4137.0435	100.35
4137.5259	100.337
4138.0078	100.317
4138.4902	100.296
4138.9722	100.281
4139.4541	100.272
4139.9365	100.267
4140.4185	100.259
4140.9004	100.246
4141.3828	100.23
4141.8647	100.214
4142.3472	100.202
4142.8291	100.198
4143.3110	100.201
4143.7935	100.212
4144.2754	100.23
4144.7573	100.251
4145.2397	100.275
4145.7217	100.298
4146.2041	100.32
4146.6860	100.342
4147.1680	100.367
4147.6504	100.392
4148.1323	100.412
4148.6143	100.42
4149.0967	100.41
4149.5786	100.383
4150.0610	100.344
4150.5430	100.303
4151.0249	100.27
4151.5073	100.25
4151.9893	100.246
4152.4712	100.258
4152.9536	100.285
4153.4355	100.323
4153.9180	100.365
4154.3999	100.404
4154.8818	100.432
4155.3643	100.447
4155.8462	100.446
4156.3281	100.431
4156.8105	100.403
4157.2925	100.365
4157.7749	100.319
4158.2568	100.27
4158.7388	100.226
4159.2212	100.197
4159.7031	100.19
4160.1851	100.206
4160.6675	100.237
4161.1494	100.268
4161.6318	100.287
4162.1138	100.287
4162.5957	100.275
4163.0781	100.262
4163.5601	100.26
4164.0420	100.273
4164.5244	100.299
4165.0063	100.33
4165.4888	100.358
4165.9707	100.379
4166.4526	100.393
4166.9351	100.398
4167.4170	100.394
4167.8989	100.379
4168.3813	100.355
4168.8633	100.326
4169.3457	100.301
4169.8276	100.284
4170.3096	100.277
4170.7920	100.273
4171.2739	100.266
4171.7559	100.255
4172.2383	100.24
4172.7202	100.23
4173.2026	100.231
4173.6846	100.244
4174.1665	100.267
4174.6489	100.292
4175.1309	100.314
4175.6128	100.328
4176.0952	100.331
4176.5771	100.326
4177.0596	100.316
4177.5415	100.305
4178.0234	100.294
4178.5059	100.285
4178.9878	100.278
4179.4697	100.276
4179.9521	100.28
4180.4341	100.293
4180.9165	100.314
4181.3984	100.339
4181.8804	100.361
4182.3628	100.373
4182.8447	100.371
4183.3267	100.356
4183.8091	100.333
4184.2910	100.308
4184.7734	100.287
4185.2554	100.272
4185.7373	100.265
4186.2197	100.269
4186.7017	100.282
4187.1836	100.308
4187.6660	100.343
4188.1479	100.385
4188.6304	100.427
4189.1123	100.46
4189.5942	100.476
4190.0767	100.471
4190.5586	100.445
4191.0405	100.408
4191.5229	100.371
4192.0049	100.344
4192.4873	100.33
4192.9692	100.324
4193.4512	100.315
4193.9336	100.294
4194.4155	100.259
4194.8975	100.219
4195.3799	100.184
4195.8618	100.165
4196.3442	100.163
4196.8262	100.175
4197.3081	100.192
4197.7905	100.211
4198.2725	100.233
4198.7544	100.261
4199.2368	100.297
4199.7188	100.337
4200.2012	100.375
4200.6831	100.404
4201.1650	100.419
4201.6475	100.422
4202.1294	100.419
4202.6113	100.416
4203.0938	100.415
4203.5757	100.413
4204.0581	100.405
4204.5400	100.386
4205.0220	100.354
4205.5044	100.315
4205.9863	100.278
4206.4683	100.254
4206.9507	100.247
4207.4326	100.258
4207.9150	100.282
4208.3970	100.309
4208.8789	100.332
4209.3613	100.348
4209.8433	100.356
4210.3252	100.36
4210.8076	100.362
4211.2896	100.364
4211.7720	100.366
4212.2539	100.367
4212.7358	100.368
4213.2183	100.371
4213.7002	100.376
4214.1821	100.384
4214.6646	100.391
4215.1465	100.393
4215.6289	100.384
4216.1108	100.363
4216.5928	100.33
4217.0752	100.288
4217.5571	100.246
4218.0391	100.216
4218.5215	100.206
4219.0034	100.218
4219.4858	100.246
4219.9678	100.278
4220.4497	100.305
4220.9321	100.324
4221.4141	100.341
4221.8960	100.364
4222.3784	100.393
4222.8604	100.42
4223.3428	100.43
4223.8247	100.412
4224.3066	100.37
4224.7891	100.32
4225.2710	100.285
4225.7529	100.278
4226.2354	100.3
4226.7173	100.337
4227.1997	100.371
4227.6816	100.387
4228.1636	100.383
4228.6460	100.363
4229.1279	100.339
4229.6099	100.32
4230.0923	100.314
4230.5742	100.32
4231.0566	100.334
4231.5386	100.347
4232.0205	100.354
4232.5029	100.35
4232.9849	100.338
4233.4668	100.324
4233.9492	100.316
4234.4312	100.314
4234.9136	100.318
4235.3955	100.32
4235.8774	100.316
4236.3599	100.311
4236.8418	100.31
4237.3237	100.322
4237.8062	100.348
4238.2881	100.378
4238.7705	100.399
4239.2524	100.4
4239.7344	100.379
4240.2168	100.344
4240.6987	100.311
4241.1807	100.293
4241.6631	100.293
4242.1450	100.305
4242.6274	100.317
4243.1094	100.317
4243.5913	100.303
4244.0737	100.283
4244.5557	100.269
4245.0376	100.272
4245.5200	100.292
4246.0020	100.319
4246.4844	100.337
4246.9663	100.334
4247.4482	100.308
4247.9307	100.27
4248.4126	100.24
4248.8945	100.234
4249.3770	100.256
4249.8589	100.299
4250.3413	100.346
4250.8232	100.384
4251.3052	100.407
4251.7876	100.419
4252.2695	100.425
4252.7515	100.432
4253.2339	100.438
4253.7158	100.438
4254.1982	100.43
4254.6802	100.413
4255.1621	100.39
4255.6445	100.366
4256.1265	100.345
4256.6084	100.33
4257.0908	100.324
4257.5728	100.328
4258.0552	100.341
4258.5371	100.359
4259.0190	100.374
4259.5015	100.381
4259.9834	100.378
4260.4653	100.37
4260.9478	100.365
4261.4297	100.369
4261.9121	100.381
4262.3940	100.394
4262.8760	100.395
4263.3584	100.379
4263.8403	100.347
4264.3223	100.308
4264.8047	100.276
4265.2866	100.258
4265.7690	100.256
4266.2510	100.264
4266.7329	100.274
4267.2153	100.284
4267.6973	100.289
4268.1792	100.289
4268.6616	100.284
4269.1436	100.271
4269.6260	100.252
4270.1079	100.233
4270.5898	100.221
4271.0723	100.226
4271.5542	100.248
4272.0361	100.281
4272.5186	100.311
4273.0005	100.325
4273.4829	100.316
4273.9648	100.291
4274.4468	100.263
4274.9292	100.247
4275.4111	100.252
4275.8931	100.27
4276.3755	100.29
4276.8574	100.297
4277.3398	100.288
4277.8218	100.268
4278.3037	100.25
4278.7861	100.244
4279.2681	100.253
4279.7500	100.273
4280.2324	100.295
4280.7144	100.312
4281.1968	100.32
4281.6787	100.316
4282.1606	100.299
4282.6431	100.269
4283.1250	100.228
4283.6069	100.183
4284.0894	100.145
4284.5713	100.123
4285.0537	100.123
4285.5356	100.141
4286.0176	100.169
4286.5000	100.197
4286.9819	100.216
4287.4639	100.222
4287.9463	100.215
4288.4282	100.199
4288.9106	100.178
4289.3926	100.16
4289.8745	100.154
4290.3569	100.166
4290.8389	100.195
4291.3208	100.234
4291.8032	100.268
4292.2852	100.282
4292.7676	100.268
4293.2495	100.232
4293.7314	100.191
4294.2139	100.167
4294.6958	100.172
4295.1777	100.202
4295.6602	100.236
4296.1421	100.25
4296.6245	100.234
4297.1064	100.194
4297.5884	100.156
4298.0708	100.141
4298.5527	100.159
4299.0347	100.197
4299.5171	100.233
4299.9990	100.249
4300.4814	100.242
4300.9634	100.224
4301.4453	100.212
4301.9277	100.214
4302.4097	100.224
4302.8916	100.231
4303.3740	100.224
4303.8560	100.203
4304.3384	100.179
4304.8203	100.162
4305.3022	100.154
4305.7847	100.152
4306.2666	100.147
4306.7485	100.136
4307.2310	100.122
4307.7129	100.114
4308.1953	100.12
4308.6772	100.139
4309.1592	100.165
4309.6416	100.189
4310.1235	100.205
4310.6055	100.207
4311.0879	100.197
4311.5698	100.178
4312.0522	100.152
4312.5342	100.126
4313.0161	100.103
4313.4985	100.086
4313.9805	100.077
4314.4624	100.076
4314.9448	100.079
4315.4268	100.086
4315.9092	100.091
4316.3911	100.089
4316.8730	100.074
4317.3555	100.046
4317.8374	100.009
4318.3193	99.9804
4318.8018	99.9765
4319.2837	100.007
4319.7661	100.068
4320.2480	100.142
4320.7300	100.203
4321.2124	100.235
4321.6943	100.235
4322.1763	100.21
4322.6587	100.178
4323.1406	100.151
4323.6230	100.137
4324.1050	100.134
4324.5869	100.136
4325.0693	100.134
4325.5513	100.121
4326.0332	100.096
4326.5156	100.062
4326.9976	100.024
4327.4800	99.9923
4327.9619	99.9725
4328.4438	99.9684
4328.9263	99.9796
4329.4082	100.002
4329.8901	100.028
4330.3726	100.052
4330.8545	100.067
4331.3369	100.072
4331.8188	100.07
4332.3008	100.067
4332.7832	100.068
4333.2651	100.075
4333.7471	100.085
4334.2295	100.098
4334.7114	100.115
4335.1938	100.14
4335.6758	100.176
4336.1577	100.219
4336.6401	100.262
4337.1221	100.296
4337.6040	100.316
4338.0864	100.322
4338.5684	100.318
4339.0508	100.305
4339.5327	100.283
4340.0146	100.25
4340.4971	100.21
4340.9790	100.171
4341.4609	100.143
4341.9434	100.127
4342.4253	100.121
4342.9077	100.118
4343.3896	100.113
4343.8716	100.11
4344.3540	100.116
4344.8359	100.137
4345.3179	100.171
4345.8003	100.207
4346.2822	100.233
4346.7646	100.24
4347.2466	100.231
4347.7285	100.214
4348.2109	100.202
4348.6929	100.206
4349.1748	100.227
4349.6572	100.262
4350.1392	100.298
4350.6216	100.324
4351.1035	100.328
4351.5854	100.309
4352.0679	100.271
4352.5498	100.226
4353.0317	100.188
4353.5142	100.169
4353.9961	100.17
4354.4785	100.19
4354.9604	100.222
4355.4424	100.257
4355.9248	100.288
4356.4067	100.308
4356.8887	100.311
4357.3711	100.295
4357.8530	100.263
4358.3354	100.223
4358.8174	100.189
4359.2993	100.173
4359.7817	100.18
4360.2637	100.205
4360.7456	100.235
4361.2280	100.254
4361.7100	100.255
4362.1924	100.244
4362.6743	100.233
4363.1563	100.237
4363.6387	100.258
4364.1206	100.289
4364.6025	100.318
4365.0850	100.331
4365.5669	100.326
4366.0493	100.311
4366.5313	100.292
4367.0132	100.275
4367.4956	100.258
4367.9775	100.237
4368.4595	100.212
4368.9419	100.188
4369.4238	100.171
4369.9063	100.165
4370.3882	100.17
4370.8701	100.181
4371.3525	100.195
4371.8345	100.214
4372.3164	100.242
4372.7988	100.279
4373.2808	100.322
4373.7632	100.359
4374.2451	100.379
4374.7271	100.375
4375.2095	100.347
4375.6914	100.306
4376.1733	100.264
4376.6558	100.233
4377.1377	100.22
4377.6201	100.226
4378.1021	100.25
4378.5840	100.289
4379.0664	100.337
4379.5483	100.387
4380.0303	100.426
4380.5127	100.44
4380.9946	100.419
4381.4771	100.364
4381.9590	100.287
4382.4409	100.21
4382.9233	100.152
4383.4053	100.125
4383.8872	100.131
4384.3696	100.156
4384.8516	100.188
4385.3340	100.213
4385.8159	100.229
4386.2979	100.239
4386.7803	100.247
4387.2622	100.26
4387.7441	100.278
4388.2266	100.299
4388.7085	100.321
4389.1909	100.342
4389.6729	100.36
4390.1548	100.37
4390.6372	100.371
4391.1191	100.358
4391.6011	100.335
4392.0835	100.306
4392.5654	100.28
4393.0479	100.264
4393.5298	100.261
4394.0117	100.269
4394.4941	100.28
4394.9761	100.285
4395.4580	100.281
4395.9404	100.269
4396.4224	100.253
4396.9048	100.241
4397.3867	100.235
4397.8687	100.235
4398.3511	100.234
4398.8330	100.225
4399.3149	100.206
4399.7974	100.179
4400.2793	100.153
4400.7617	100.133
4401.2437	100.123
4401.7256	100.125
4402.2080	100.136
4402.6899	100.151
4403.1719	100.167
4403.6543	100.18
4404.1362	100.184
4404.6187	100.172
4405.1006	100.142
4405.5825	100.1
4406.0649	100.058
4406.5469	100.033
4407.0288	100.037
4407.5112	100.072
4407.9932	100.128
4408.4756	100.184
4408.9575	100.224
4409.4395	100.241
4409.9219	100.24
4410.4038	100.231
4410.8857	100.225
4411.3682	100.223
4411.8501	100.222
4412.3325	100.216
4412.8145	100.202
4413.2964	100.181
4413.7788	100.156
4414.2607	100.128
4414.7427	100.1
4415.2251	100.076
4415.7070	100.062
4416.1895	100.065
4416.6714	100.086
4417.1533	100.116
4417.6357	100.145
4418.1177	100.164
4418.5996	100.169
4419.0820	100.167
4419.5640	100.164
4420.0464	100.164
4420.5283	100.164
4421.0103	100.161
4421.4927	100.153
4421.9746	100.143
4422.4565	100.141
4422.9390	100.15
4423.4209	100.171
4423.9033	100.201
4424.3853	100.233
4424.8672	100.264
4425.3496	100.293
4425.8315	100.315
4426.3135	100.327
4426.7959	100.322
4427.2778	100.299
4427.7603	100.268
4428.2422	100.241
4428.7241	100.234
4429.2065	100.249
4429.6885	100.278
4430.1704	100.304
4430.6528	100.312
4431.1348	100.299
4431.6172	100.273
4432.0991	100.245
4432.5811	100.227
4433.0635	100.219
4433.5454	100.219
4434.0273	100.224
4434.5098	100.231
4434.9917	100.245
4435.4741	100.263
4435.9561	100.283
4436.4380	100.302
4436.9204	100.318
4437.4023	100.335
4437.8843	100.36
4438.3667	100.393
4438.8486	100.423
4439.3311	100.434
4439.8130	100.416
4440.2949	100.369
4440.7773	100.311
4441.2593	100.262
4441.7412	100.238
4442.2236	100.239
4442.7056	100.253
4443.1880	100.266
4443.6699	100.27
4444.1519	100.269
4444.6343	100.271
4445.1162	100.286
4445.5981	100.315
4446.0806	100.357
4446.5625	100.402
4447.0449	100.444
4447.5269	100.479
4448.0088	100.503
4448.4912	100.516
4448.9731	100.517
4449.4551	100.502
4449.9375	100.471
4450.4194	100.421
4450.9019	100.358
4451.3838	100.29
4451.8657	100.233
4452.3481	100.201
4452.8301	100.201
4453.3120	100.229
4453.7944	100.273
4454.2764	100.318
4454.7588	100.354
4455.2407	100.379
4455.7227	100.395
4456.2051	100.408
4456.6870	100.421
4457.1689	100.434
4457.6514	100.443
4458.1333	100.45
4458.6157	100.455
4459.0977	100.457
4459.5796	100.453
4460.0620	100.441
4460.5439	100.42
4461.0259	100.391
4461.5083	100.364
4461.9902	100.343
4462.4727	100.331
4462.9546	100.325
4463.4365	100.318
4463.9189	100.306
4464.4009	100.291
4464.8828	100.28
4465.3652	100.28
4465.8472	100.294
4466.3296	100.323
4466.8115	100.359
4467.2935	100.397
4467.7759	100.43
4468.2578	100.455
4468.7397	100.466
4469.2222	100.461
4469.7041	100.441
4470.1865	100.409
4470.6685	100.379
4471.1504	100.362
4471.6328	100.369
4472.1147	100.398
4472.5967	100.439
4473.0791	100.473
4473.5610	100.482
4474.0435	100.46
4474.5254	100.411
4475.0073	100.354
4475.4897	100.312
4475.9717	100.299
4476.4536	100.318
4476.9360	100.358
4477.4180	100.402
4477.9004	100.433
4478.3823	100.446
4478.8643	100.446
4479.3467	100.442
4479.8286	100.444
4480.3105	100.451
4480.7930	100.457
4481.2749	100.451
4481.7573	100.43
4482.2393	100.399
4482.7212	100.368
4483.2036	100.351
4483.6855	100.355
4484.1675	100.377
4484.6499	100.409
4485.1318	100.439
4485.6143	100.46
4486.0962	100.467
4486.5781	100.464
4487.0605	100.452
4487.5425	100.437
4488.0244	100.42
4488.5068	100.407
4488.9888	100.4
4489.4712	100.404
4489.9531	100.418
4490.4351	100.435
4490.9175	100.447
4491.3994	100.443
4491.8813	100.424
4492.3638	100.395
4492.8457	100.368
4493.3281	100.352
4493.8101	100.346
4494.2920	100.341
4494.7744	100.324
4495.2563	100.289
4495.7383	100.246
4496.2207	100.212
4496.7026	100.207
4497.1851	100.24
4497.6670	100.302
4498.1489	100.371
4498.6313	100.428
4499.1133	100.462
4499.5952	100.478
4500.0776	100.488

##### Extended Information
[Comments]
Sample name	2462
Comment
User
Division
Company	ETHZ

[Detailed Information]
Creation date	18/01/2021 10:08
Date modified	18/01/2021 10:08

Data array type	Linear data array
Horizontal axis	Wavenumber [cm-1]
Vertical axis	%T
Start	499.955 cm-1
End	4500.08 cm-1
Data interval	0.482117 cm-1
Data points	8298    

[Measurement Information]
Model Name	FT/IR-4100typeA
Serial Number	B111161016

Accessory	ATR PRO ONE
Accessory S/N	B131461809
Incident angle	45 deg

Measurement Date	18/01/2021 09:13

Light Source	Standard
Detector	TGS
Accumulation	32
Resolution	2 cm-1
Zero Filling	On
Apodization	Cosine
Gain	Auto (32)
Aperture	Auto (5 mm)
Scanning Speed	Auto (2 mm/sec)
Filter	Auto (30000 Hz)

